CH_1,CH_2,CH_3,CH_4,CH_5,CH_6,CH_7,CH_8,CH_9,CH_10,CH_11,CH_12,CH_13,CH_14,CH_15,CH_16,CH_17
1.0,46.64508819580078,17.360347747802734,71.85916900634766,55.519771575927734,0.0,0.0,-0.0,0.0,0.2987663149833679,0.9486059546470642,-0.15466268360614777,7.736820220947266,-4.318580150604248,-5.2799601554870605,0.0,538358.0
1.0,31.370765686035156,-14.661596298217773,146.39491271972656,129.95660400390625,0.0,0.0,-0.0,0.0,0.2987663149833679,0.9486059546470642,-0.15466268360614777,7.736820220947266,-4.318580150604248,-5.2799601554870605,0.0,538359.0
1.0,12.195886611938477,-38.28019714355469,147.3818817138672,141.85313415527344,0.0,0.0,-0.0,0.0,0.2987663149833679,0.9486059546470642,-0.15466268360614777,7.736820220947266,-4.318580150604248,-5.2799601554870605,0.0,538360.0
1.0,-13.421365737915039,-41.65324020385742,58.06594467163086,76.1585922241211,0.0,0.0,-0.0,0.0,0.2987663149833679,0.9486059546470642,-0.15466268360614777,7.736820220947266,-4.318580150604248,-5.2799601554870605,0.0,538361.0
1.0,-41.12855911254883,-23.39389991760254,-75.17063903808594,-36.318023681640625,0.0,0.0,-0.0,0.0,0.3000480532646179,0.9490942358970642,-0.15222129225730896,5.829319953918457,-4.165979862213135,-2.1821799278259277,0.0,538362.0
1.0,-55.805721282958984,6.759288787841797,-172.39683532714844,-135.58535766601562,0.0,0.0,-0.0,0.0,0.3000480532646179,0.9490942358970642,-0.15222129225730896,5.829319953918457,-4.165979862213135,-2.1821799278259277,0.0,538363.0
1.0,-42.90428161621094,32.736324310302734,-176.6090545654297,-164.08961486816406,0.0,0.0,-0.0,0.0,0.3000480532646179,0.9490942358970642,-0.15222129225730896,5.829319953918457,-4.165979862213135,-2.1821799278259277,0.0,538364.0
1.0,-7.432694911956787,40.688575744628906,-89.01333618164062,-103.66175079345703,0.0,0.0,-0.0,0.0,0.3000480532646179,0.9490942358970642,-0.15222129225730896,5.829319953918457,-4.165979862213135,-2.1821799278259277,0.0,538365.0
1.0,32.76442337036133,26.957077026367188,43.23759841918945,12.434637069702148,0.0,0.0,-0.0,0.0,0.3000480532646179,0.9490942358970642,-0.15222129225730896,5.829319953918457,-4.165979862213135,-2.1821799278259277,0.0,538366.0
1.0,64.85053253173828,-0.19574399292469025,161.4680633544922,125.56297302246094,0.0,0.0,-0.0,0.0,0.3000480532646179,0.9490942358970642,-0.15222129225730896,5.829319953918457,-4.165979862213135,-2.1821799278259277,0.0,538367.0
1.0,74.53046417236328,-25.953065872192383,210.69699096679688,178.01068115234375,0.0,0.0,-0.0,0.0,0.3000480532646179,0.9490942358970642,-0.15222129225730896,5.829319953918457,-4.165979862213135,-2.1821799278259277,0.0,538368.0
1.0,46.26072311401367,-37.0817756652832,156.236083984375,135.94078063964844,0.0,0.0,-0.0,0.0,0.3000480532646179,0.9490942358970642,-0.15222129225730896,5.829319953918457,-4.165979862213135,-2.1821799278259277,0.0,538369.0
1.0,-8.79466438293457,-27.976675033569336,19.085697174072266,20.766847610473633,0.0,0.0,-0.0,0.0,0.3000480532646179,0.9490942358970642,-0.15222129225730896,5.829319953918457,-4.165979862213135,-2.1821799278259277,0.0,538370.0
1.0,-52.2101936340332,-3.213768720626831,-124.63407135009766,-96.33689880371094,0.0,0.0,-0.0,0.0,0.3000480532646179,0.9490942358970642,-0.15222129225730896,5.829319953918457,-4.165979862213135,-2.1821799278259277,0.0,538371.0
1.0,-59.114097595214844,23.573076248168945,-197.5756378173828,-149.68592834472656,0.0,0.0,-0.0,0.0,0.3061515688896179,0.926755428314209,-0.15771444141864777,12.421640396118164,-3.0062201023101807,-3.0977799892425537,0.0,538372.0
1.0,-39.63627243041992,36.633544921875,-171.3594970703125,-122.79154205322266,0.0,0.0,-0.0,0.0,0.3061515688896179,0.926755428314209,-0.15771444141864777,12.421640396118164,-3.0062201023101807,-3.0977799892425537,0.0,538373.0
1.0,-16.65215301513672,28.396591186523438,-70.40206909179688,-43.41620635986328,0.0,0.0,-0.0,0.0,0.3061515688896179,0.926755428314209,-0.15771444141864777,12.421640396118164,-3.0062201023101807,-3.0977799892425537,0.0,538374.0
1.0,0.1311567723751068,4.099226951599121,54.650352478027344,44.35765075683594,0.0,0.0,-0.0,0.0,0.3061515688896179,0.926755428314209,-0.15771444141864777,12.421640396118164,-3.0062201023101807,-3.0977799892425537,0.0,538375.0
1.0,6.501646995544434,-22.970335006713867,140.9279327392578,96.10208892822266,0.0,0.0,-0.0,0.0,0.3061515688896179,0.926755428314209,-0.15771444141864777,12.421640396118164,-3.0062201023101807,-3.0977799892425537,0.0,538376.0
1.0,-4.7961554527282715,-39.074581146240234,135.3609161376953,82.08147430419922,0.0,0.0,-0.0,0.0,0.3061515688896179,0.926755428314209,-0.15771444141864777,12.421640396118164,-3.0062201023101807,-3.0977799892425537,0.0,538377.0
1.0,-22.72801399230957,-35.36574935913086,45.3238525390625,14.31672191619873,0.0,0.0,-0.0,0.0,0.3061515688896179,0.926755428314209,-0.15771444141864777,12.421640396118164,-3.0062201023101807,-3.0977799892425537,0.0,538378.0
1.0,-20.816890716552734,-12.323783874511719,-60.14705276489258,-57.02353286743164,0.0,0.0,-0.0,0.0,0.3061515688896179,0.926755428314209,-0.15771444141864777,12.421640396118164,-3.0062201023101807,-3.0977799892425537,0.0,538379.0
1.0,8.705281257629395,18.501157760620117,-113.30886840820312,-86.16227722167969,0.0,0.0,-0.0,0.0,0.3061515688896179,0.926755428314209,-0.15771444141864777,12.421640396118164,-3.0062201023101807,-3.0977799892425537,0.0,538380.0
1.0,48.73318099975586,40.10704040527344,-90.39688110351562,-59.54548645019531,0.0,0.0,-0.0,0.0,0.3061515688896179,0.926755428314209,-0.15771444141864777,12.421640396118164,-3.0062201023101807,-3.0977799892425537,0.0,538381.0
1.0,74.89974975585938,40.49205017089844,-11.47951602935791,6.062527179718018,0.0,0.0,-0.0,0.0,0.3021842837333679,0.925900936126709,-0.16369587182998657,5.051060199737549,-6.7601799964904785,-6.2565999031066895,0.0,538382.0
1.0,67.5202865600586,19.510210037231445,78.19938659667969,75.48345184326172,0.0,0.0,-0.0,0.0,0.3021842837333679,0.925900936126709,-0.16369587182998657,5.051060199737549,-6.7601799964904785,-6.2565999031066895,0.0,538383.0
1.0,20.43703269958496,-11.72120189666748,129.263427734375,110.54601287841797,0.0,0.0,-0.0,0.0,0.3021842837333679,0.925900936126709,-0.16369587182998657,5.051060199737549,-6.7601799964904785,-6.2565999031066895,0.0,538384.0
1.0,-46.82472229003906,-36.432403564453125,109.94514465332031,90.5583267211914,0.0,0.0,-0.0,0.0,0.3021842837333679,0.925900936126709,-0.16369587182998657,5.051060199737549,-6.7601799964904785,-6.2565999031066895,0.0,538385.0
1.0,-90.46858978271484,-40.715736389160156,30.7078857421875,26.762907028198242,0.0,0.0,-0.0,0.0,0.3021842837333679,0.925900936126709,-0.16369587182998657,5.051060199737549,-6.7601799964904785,-6.2565999031066895,0.0,538386.0
1.0,-77.92150115966797,-21.851491928100586,-61.088279724121094,-48.68976593017578,0.0,0.0,-0.0,0.0,0.3021842837333679,0.925900936126709,-0.16369587182998657,5.051060199737549,-6.7601799964904785,-6.2565999031066895,0.0,538387.0
1.0,-21.652252197265625,9.350057601928711,-119.23155212402344,-103.21499633789062,0.0,0.0,-0.0,0.0,0.3021842837333679,0.925900936126709,-0.16369587182998657,5.051060199737549,-6.7601799964904785,-6.2565999031066895,0.0,538388.0
1.0,37.31926727294922,34.77540588378906,-121.1838150024414,-112.03230285644531,0.0,0.0,-0.0,0.0,0.3021842837333679,0.925900936126709,-0.16369587182998657,5.051060199737549,-6.7601799964904785,-6.2565999031066895,0.0,538389.0
1.0,67.86368560791016,40.165096282958984,-69.68528747558594,-69.14750671386719,0.0,0.0,0.0,0.0,0.3021842837333679,0.925900936126709,-0.16369587182998657,5.051060199737549,-6.7601799964904785,-6.2565999031066895,0.0,538390.0
1.0,61.787925720214844,23.215662002563477,10.905082702636719,4.50812292098999,0.0,0.0,0.0,0.0,0.3021842837333679,0.925900936126709,-0.16369587182998657,5.051060199737549,-6.7601799964904785,-6.2565999031066895,0.0,538391.0
1.0,27.642288208007812,-6.316906929016113,85.97355651855469,74.31382751464844,0.0,0.0,0.0,0.0,0.3053581118583679,0.923886775970459,-0.16076618432998657,1.4802199602127075,-5.356259822845459,-8.194620132446289,0.0,538392.0
1.0,-17.9948673248291,-32.43873977661133,120.16020202636719,108.06786346435547,0.0,0.0,0.0,0.0,0.3053581118583679,0.923886775970459,-0.16076618432998657,1.4802199602127075,-5.356259822845459,-8.194620132446289,0.0,538393.0
1.0,-56.58468246459961,-41.13979721069336,89.63107299804688,86.00997924804688,0.0,0.0,0.0,0.0,0.3053581118583679,0.923886775970459,-0.16076618432998657,1.4802199602127075,-5.356259822845459,-8.194620132446289,0.0,538394.0
1.0,-69.18358612060547,-27.48748016357422,5.724268436431885,16.58588981628418,0.0,0.0,0.0,0.0,0.3053581118583679,0.923886775970459,-0.16076618432998657,1.4802199602127075,-5.356259822845459,-8.194620132446289,0.0,538395.0
1.0,-45.22104263305664,1.574177861213684,-83.18126678466797,-61.738746643066406,0.0,0.0,0.0,0.0,0.3053581118583679,0.923886775970459,-0.16076618432998657,1.4802199602127075,-5.356259822845459,-8.194620132446289,0.0,538396.0
1.0,-0.1007046103477478,29.8482723236084,-128.9105224609375,-108.98339080810547,0.0,0.0,0.0,0.0,0.3053581118583679,0.923886775970459,-0.16076618432998657,1.4802199602127075,-5.356259822845459,-8.194620132446289,0.0,538397.0
1.0,32.43404006958008,40.899497985839844,-113.6732406616211,-107.21051788330078,0.0,0.0,0.0,0.0,0.3053581118583679,0.923886775970459,-0.16076618432998657,1.4802199602127075,-5.356259822845459,-8.194620132446289,0.0,538398.0
1.0,38.05663299560547,28.827232360839844,-43.44022750854492,-56.25508117675781,0.0,0.0,0.0,0.0,0.3053581118583679,0.923886775970459,-0.16076618432998657,1.4802199602127075,-5.356259822845459,-8.194620132446289,0.0,538399.0
1.0,31.258146286010742,1.189335823059082,59.86609649658203,30.576414108276367,0.0,0.0,0.0,0.0,0.3053581118583679,0.923886775970459,-0.16076618432998657,1.4802199602127075,-5.356259822845459,-8.194620132446289,0.0,538400.0
1.0,26.403837203979492,-26.60512351989746,151.69190979003906,118.12425231933594,0.0,0.0,0.0,0.0,0.3053581118583679,0.923886775970459,-0.16076618432998657,1.4802199602127075,-5.356259822845459,-8.194620132446289,0.0,538401.0
1.0,23.317577362060547,-39.54121398925781,178.69512939453125,155.8351593017578,0.0,0.0,0.0,0.0,0.2996818423271179,0.923703670501709,-0.15985067188739777,16.908079147338867,-6.958559989929199,-2.868880033493042,0.0,538402.0
1.0,15.010037422180176,-30.788679122924805,114.55531311035156,111.18732452392578,0.0,0.0,0.0,0.0,0.2996818423271179,0.923703670501709,-0.15985067188739777,16.908079147338867,-6.958559989929199,-2.868880033493042,0.0,538403.0
1.0,-6.2716546058654785,-5.410593032836914,-19.447511672973633,0.19420377910137177,0.0,0.0,0.0,0.0,0.2996818423271179,0.923703670501709,-0.15985067188739777,16.908079147338867,-6.958559989929199,-2.868880033493042,0.0,538404.0
1.0,-38.79848098754883,22.82131004333496,-157.89794921875,-116.89311981201172,0.0,0.0,0.0,0.0,0.2996818423271179,0.923703670501709,-0.15985067188739777,16.908079147338867,-6.958559989929199,-2.868880033493042,0.0,538405.0
1.0,-61.0123291015625,39.03797912597656,-219.28395080566406,-173.0704803466797,0.0,0.0,0.0,0.0,0.2996818423271179,0.923703670501709,-0.15985067188739777,16.908079147338867,-6.958559989929199,-2.868880033493042,0.0,538406.0
1.0,-49.70339584350586,34.82340621948242,-161.42930603027344,-136.96157836914062,0.0,0.0,0.0,0.0,0.2996818423271179,0.923703670501709,-0.15985067188739777,16.908079147338867,-6.958559989929199,-2.868880033493042,0.0,538407.0
1.0,-10.404342651367188,12.065790176391602,-18.65397834777832,-30.714614868164062,0.0,0.0,0.0,0.0,0.2996818423271179,0.923703670501709,-0.15985067188739777,16.908079147338867,-6.958559989929199,-2.868880033493042,0.0,538408.0
1.0,26.85871696472168,-17.949892044067383,123.72347259521484,85.4481201171875,0.0,0.0,0.0,0.0,0.2996818423271179,0.923703670501709,-0.15985067188739777,16.908079147338867,-6.958559989929199,-2.868880033493042,0.0,538409.0
1.0,42.45414352416992,-39.29622268676758,191.4309844970703,150.05709838867188,0.0,0.0,0.0,0.0,0.2996818423271179,0.923703670501709,-0.15985067188739777,16.908079147338867,-6.958559989929199,-2.868880033493042,0.0,538410.0
1.0,42.38300704956055,-39.60175323486328,162.3191375732422,135.36746215820312,0.0,0.0,0.0,0.0,0.2996818423271179,0.923703670501709,-0.15985067188739777,16.908079147338867,-6.958559989929199,-2.868880033493042,0.0,538411.0
1.0,39.136627197265625,-17.78021240234375,65.0550308227539,59.079315185546875,0.0,0.0,0.0,0.0,0.3056632876396179,0.929624080657959,-0.17053179442882538,21.302959442138672,-5.478340148925781,0.091559998691082,0.0,538412.0
1.0,36.427677154541016,14.784557342529297,-43.28507614135742,-30.489070892333984,0.0,0.0,0.0,0.0,0.3056632876396179,0.929624080657959,-0.17053179442882538,21.302959442138672,-5.478340148925781,0.091559998691082,0.0,538413.0
1.0,29.36747932434082,40.282901763916016,-109.07818603515625,-86.15447235107422,0.0,0.0,0.0,0.0,0.3056632876396179,0.929624080657959,-0.17053179442882538,21.302959442138672,-5.478340148925781,0.091559998691082,0.0,538414.0
1.0,5.538379192352295,44.42509078979492,-114.8186264038086,-91.3813247680664,0.0,0.0,0.0,0.0,0.3056632876396179,0.929624080657959,-0.17053179442882538,21.302959442138672,-5.478340148925781,0.091559998691082,0.0,538415.0
1.0,-40.55382537841797,24.6921329498291,-78.5314712524414,-60.09109878540039,0.0,0.0,0.0,0.0,0.3056632876396179,0.929624080657959,-0.17053179442882538,21.302959442138672,-5.478340148925781,0.091559998691082,0.0,538416.0
1.0,-87.65745544433594,-8.482122421264648,-24.7076416015625,-13.314901351928711,0.0,0.0,0.0,0.0,0.3056632876396179,0.929624080657959,-0.17053179442882538,21.302959442138672,-5.478340148925781,0.091559998691082,0.0,538417.0
1.0,-100.79241180419922,-37.45648956298828,26.48314094543457,30.171510696411133,0.0,0.0,0.0,0.0,0.3056632876396179,0.929624080657959,-0.17053179442882538,21.302959442138672,-5.478340148925781,0.091559998691082,0.0,538418.0
1.0,-66.0979995727539,-46.747215270996094,54.05027770996094,50.066497802734375,0.0,0.0,0.0,-0.0,0.3056632876396179,0.929624080657959,-0.17053179442882538,21.302959442138672,-5.478340148925781,0.091559998691082,0.0,538419.0
1.0,-0.6641078591346741,-31.356489181518555,46.072669982910156,34.33627700805664,0.0,0.0,0.0,-0.0,0.3056632876396179,0.929624080657959,-0.17053179442882538,21.302959442138672,-5.478340148925781,0.091559998691082,0.0,538420.0
1.0,62.91028594970703,0.4387596845626831,10.859454154968262,-6.299499988555908,0.0,0.0,0.0,-0.0,0.3056632876396179,0.929624080657959,-0.17053179442882538,21.302959442138672,-5.478340148925781,0.091559998691082,0.0,538421.0
1.0,92.5645980834961,31.036319732666016,-28.75414276123047,-44.20143508911133,0.0,0.0,0.0,-0.0,0.3068839907646179,0.933774471282959,-0.1859736442565918,10.041080474853516,-5.066319942474365,-3.753959894180298,0.0,538422.0
1.0,75.76590728759766,43.4854850769043,-45.503997802734375,-53.646793365478516,0.0,0.0,0.0,-0.0,0.3068839907646179,0.933774471282959,-0.1859736442565918,10.041080474853516,-5.066319942474365,-3.753959894180298,0.0,538423.0
1.0,29.998167037963867,31.850513458251953,-21.778173446655273,-24.421241760253906,0.0,0.0,0.0,-0.0,0.3068839907646179,0.933774471282959,-0.1859736442565918,10.041080474853516,-5.066319942474365,-3.753959894180298,0.0,538424.0
1.0,-15.694185256958008,3.561687469482422,31.81645965576172,30.37723731994629,0.0,0.0,0.0,-0.0,0.3068839907646179,0.933774471282959,-0.1859736442565918,10.041080474853516,-5.066319942474365,-3.753959894180298,0.0,538425.0
1.0,-41.67472457885742,-25.8311824798584,80.18174743652344,78.12371063232422,0.0,0.0,0.0,-0.0,0.3068839907646179,0.933774471282959,-0.1859736442565918,10.041080474853516,-5.066319942474365,-3.753959894180298,0.0,538426.0
1.0,-37.251949310302734,-40.298301696777344,93.91279602050781,90.08240509033203,0.0,0.0,0.0,-0.0,0.3068839907646179,0.933774471282959,-0.1859736442565918,10.041080474853516,-5.066319942474365,-3.753959894180298,0.0,538427.0
1.0,-5.530160903930664,-31.77884864807129,64.3425064086914,60.331031799316406,0.0,0.0,0.0,-0.0,0.3068839907646179,0.933774471282959,-0.1859736442565918,10.041080474853516,-5.066319942474365,-3.753959894180298,0.0,538428.0
1.0,28.447473526000977,-5.299001693725586,-2.889418601989746,0.513277530670166,0.0,0.0,0.0,-0.0,0.3068839907646179,0.933774471282959,-0.1859736442565918,10.041080474853516,-5.066319942474365,-3.753959894180298,0.0,538429.0
1.0,36.38125991821289,23.93834686279297,-84.44805908203125,-66.81904602050781,0.0,0.0,0.0,-0.0,0.3068839907646179,0.933774471282959,-0.1859736442565918,10.041080474853516,-5.066319942474365,-3.753959894180298,0.0,538430.0
1.0,9.243522644042969,39.272796630859375,-141.121337890625,-110.56173706054688,0.0,0.0,0.0,-0.0,0.3068839907646179,0.933774471282959,-0.1859736442565918,10.041080474853516,-5.066319942474365,-3.753959894180298,0.0,538431.0
1.0,-37.998653411865234,32.15736770629883,-139.22470092773438,-105.62971496582031,0.0,0.0,0.0,-0.0,0.31683269143104553,0.934995174407959,-0.1936640590429306,1.052940011024475,0.5340999960899353,-3.8302600383758545,0.0,538432.0
1.0,-74.37438201904297,6.929910659790039,-71.1502914428711,-49.890316009521484,0.0,0.0,0.0,-0.0,0.31683269143104553,0.934995174407959,-0.1936640590429306,1.052940011024475,0.5340999960899353,-3.8302600383758545,0.0,538433.0
1.0,-72.58348083496094,-22.189468383789062,35.60529708862305,31.842273712158203,0.0,0.0,0.0,-0.0,0.31683269143104553,0.934995174407959,-0.1936640590429306,1.052940011024475,0.5340999960899353,-3.8302600383758545,0.0,538434.0
1.0,-27.42086410522461,-38.98259735107422,128.11895751953125,97.68402862548828,0.0,0.0,0.0,-0.0,0.31683269143104553,0.934995174407959,-0.1936640590429306,1.052940011024475,0.5340999960899353,-3.8302600383758545,0.0,538435.0
1.0,38.69363021850586,-34.17510986328125,157.13890075683594,110.65899658203125,0.0,0.0,0.0,-0.0,0.31683269143104553,0.934995174407959,-0.1936640590429306,1.052940011024475,0.5340999960899353,-3.8302600383758545,0.0,538436.0
1.0,91.38893127441406,-10.319416046142578,109.80884552001953,65.84251403808594,0.0,0.0,0.0,-0.0,0.31683269143104553,0.934995174407959,-0.1936640590429306,1.052940011024475,0.5340999960899353,-3.8302600383758545,0.0,538437.0
1.0,110.65451049804688,20.341285705566406,21.495214462280273,-1.9270192384719849,0.0,0.0,0.0,-0.0,0.31683269143104553,0.934995174407959,-0.1936640590429306,1.052940011024475,0.5340999960899353,-3.8302600383758545,0.0,538438.0
1.0,90.17408752441406,41.650264739990234,-54.21234893798828,-49.66858673095703,0.0,0.0,0.0,-0.0,0.31683269143104553,0.934995174407959,-0.1936640590429306,1.052940011024475,0.5340999960899353,-3.8302600383758545,0.0,538439.0
1.0,24.596908569335938,41.17069625854492,-91.28477478027344,-64.429443359375,0.0,0.0,0.0,-0.0,0.31683269143104553,0.934995174407959,-0.1936640590429306,1.052940011024475,0.5340999960899353,-3.8302600383758545,0.0,538440.0
1.0,-70.25824737548828,17.892213821411133,-92.69733428955078,-56.5704345703125,0.0,0.0,0.0,-0.0,0.31683269143104553,0.934995174407959,-0.1936640590429306,1.052940011024475,0.5340999960899353,-3.8302600383758545,0.0,538441.0
1.0,-142.54217529296875,-16.168949127197266,-61.74501419067383,-31.200395584106445,0.0,0.0,0.0,-0.0,0.31475749611854553,0.935971736907959,-0.1891474723815918,-0.6714400053024292,4.288060188293457,-2.1669199466705322,0.0,538442.0
1.0,-142.4096221923828,-42.635982513427734,-5.375892639160156,8.027105331420898,0.0,0.0,0.0,-0.0,0.31475749611854553,0.935971736907959,-0.1891474723815918,-0.6714400053024292,4.288060188293457,-2.1669199466705322,0.0,538443.0
1.0,-69.2447738647461,-47.394195556640625,47.5245246887207,42.02383804321289,0.0,0.0,0.0,-0.0,0.31475749611854553,0.935971736907959,-0.1891474723815918,-0.6714400053024292,4.288060188293457,-2.1669199466705322,0.0,538444.0
1.0,30.7075252532959,-28.125408172607422,62.048030853271484,47.73895263671875,0.0,0.0,0.0,-0.0,0.31475749611854553,0.935971736907959,-0.1891474723815918,-0.6714400053024292,4.288060188293457,-2.1669199466705322,0.0,538445.0
1.0,108.15167236328125,5.555312633514404,33.42727279663086,24.211299896240234,0.0,0.0,0.0,-0.0,0.31475749611854553,0.935971736907959,-0.1891474723815918,-0.6714400053024292,4.288060188293457,-2.1669199466705322,0.0,538446.0
1.0,138.74867248535156,36.85425567626953,-5.961913585662842,-4.947763919830322,0.0,0.0,0.0,-0.0,0.31475749611854553,0.935971736907959,-0.1891474723815918,-0.6714400053024292,4.288060188293457,-2.1669199466705322,0.0,538447.0
1.0,116.60308837890625,49.45512771606445,-20.44095230102539,-17.3165283203125,0.0,0.0,0.0,-0.0,0.31475749611854553,0.935971736907959,-0.1891474723815918,-0.6714400053024292,4.288060188293457,-2.1669199466705322,0.0,538448.0
1.0,47.154083251953125,36.436710357666016,-5.440250873565674,-11.807706832885742,0.0,0.0,0.0,-0.0,0.31475749611854553,0.935971736907959,-0.1891474723815918,-0.6714400053024292,4.288060188293457,-2.1669199466705322,0.0,538449.0
1.0,-47.642486572265625,4.414126873016357,14.400907516479492,-1.8603910207748413,0.0,0.0,0.0,-0.0,0.31475749611854553,0.935971736907959,-0.1891474723815918,-0.6714400053024292,4.288060188293457,-2.1669199466705322,0.0,538450.0
1.0,-128.7296142578125,-29.7951602935791,15.040644645690918,0.5894197821617126,0.0,0.0,0.0,-0.0,0.31475749611854553,0.935971736907959,-0.1891474723815918,-0.6714400053024292,4.288060188293457,-2.1669199466705322,0.0,538451.0
1.0,-157.13706970214844,-47.91668701171875,-7.3595733642578125,-10.092949867248535,0.0,0.0,0.0,-0.0,0.31262126564979553,0.936704158782959,-0.181457057595253,9.65958023071289,4.822159767150879,2.0295801162719727,0.0,538452.0
1.0,-116.90394592285156,-40.26963806152344,-39.17457580566406,-30.343097686767578,0.0,0.0,0.0,-0.0,0.31262126564979553,0.936704158782959,-0.181457057595253,9.65958023071289,4.822159767150879,2.0295801162719727,0.0,538453.0
1.0,-25.385601043701172,-11.029165267944336,-60.48595428466797,-45.658287048339844,0.0,0.0,0.0,-0.0,0.31262126564979553,0.936704158782959,-0.181457057595253,9.65958023071289,4.822159767150879,2.0295801162719727,0.0,538454.0
1.0,74.3387680053711,24.084529876708984,-55.159019470214844,-40.620635986328125,0.0,0.0,0.0,-0.0,0.31262126564979553,0.936704158782959,-0.181457057595253,9.65958023071289,4.822159767150879,2.0295801162719727,0.0,538455.0
1.0,139.5259552001953,46.300865173339844,-15.066915512084961,-7.992856502532959,0.0,0.0,0.0,-0.0,0.31262126564979553,0.936704158782959,-0.181457057595253,9.65958023071289,4.822159767150879,2.0295801162719727,0.0,538456.0
1.0,149.06564331054688,44.18977737426758,51.9516716003418,45.689151763916016,0.0,0.0,0.0,-0.0,0.31262126564979553,0.936704158782959,-0.181457057595253,9.65958023071289,4.822159767150879,2.0295801162719727,0.0,538457.0
1.0,104.39500427246094,19.344364166259766,116.26750946044922,96.51717376708984,0.0,0.0,0.0,-0.0,0.31262126564979553,0.936704158782959,-0.181457057595253,9.65958023071289,4.822159767150879,2.0295801162719727,0.0,538458.0
1.0,24.348655700683594,-15.336153984069824,138.87278747558594,113.68653106689453,0.0,0.0,0.0,-0.0,0.31262126564979553,0.936704158782959,-0.181457057595253,9.65958023071289,4.822159767150879,2.0295801162719727,0.0,538459.0
1.0,-65.44760131835938,-42.47385025024414,90.60896301269531,77.39181518554688,0.0,0.0,0.0,-0.0,0.31262126564979553,0.936704158782959,-0.181457057595253,9.65958023071289,4.822159767150879,2.0295801162719727,0.0,538460.0
1.0,-137.54238891601562,-48.5320930480957,-22.129976272583008,-5.998376369476318,0.0,0.0,0.0,-0.0,0.31262126564979553,0.936704158782959,-0.181457057595253,9.65958023071289,4.822159767150879,2.0295801162719727,0.0,538461.0
1.0,-158.91017150878906,-30.081378936767578,-143.10618591308594,-98.93500518798828,0.0,0.0,0.0,-0.0,0.31140056252479553,0.941037654876709,-0.180236354470253,5.737760066986084,4.440659999847412,2.8841400146484375,0.0,538462.0
1.0,-109.57178497314453,3.828315258026123,-200.96237182617188,-152.55970764160156,0.0,0.0,0.0,-0.0,0.31140056252479553,0.941037654876709,-0.180236354470253,5.737760066986084,4.440659999847412,2.8841400146484375,0.0,538463.0
1.0,-8.75745964050293,35.34148406982422,-161.4756317138672,-138.25003051757812,0.0,0.0,0.0,-0.0,0.31140056252479553,0.941037654876709,-0.180236354470253,5.737760066986084,4.440659999847412,2.8841400146484375,0.0,538464.0
1.0,89.60897064208984,47.755828857421875,-47.99290084838867,-64.18830871582031,0.0,0.0,0.0,-0.0,0.31140056252479553,0.941037654876709,-0.180236354470253,5.737760066986084,4.440659999847412,2.8841400146484375,0.0,538465.0
1.0,133.637939453125,35.07695770263672,80.30442810058594,33.586631774902344,0.0,0.0,0.0,-0.0,0.31140056252479553,0.941037654876709,-0.180236354470253,5.737760066986084,4.440659999847412,2.8841400146484375,0.0,538466.0
1.0,112.75611877441406,4.726125240325928,170.71514892578125,116.78496551513672,0.0,0.0,0.0,-0.0,0.31140056252479553,0.941037654876709,-0.180236354470253,5.737760066986084,4.440659999847412,2.8841400146484375,0.0,538467.0
1.0,57.51158905029297,-26.683155059814453,195.76585388183594,157.42189025878906,0.0,0.0,0.0,-0.0,0.31140056252479553,0.941037654876709,-0.180236354470253,5.737760066986084,4.440659999847412,2.8841400146484375,0.0,538468.0
1.0,3.4671356678009033,-42.19043731689453,147.53192138671875,136.3829345703125,0.0,0.0,0.0,-0.0,0.31140056252479553,0.941037654876709,-0.180236354470253,5.737760066986084,4.440659999847412,2.8841400146484375,0.0,538469.0
1.0,-34.97754669189453,-33.945560455322266,38.19343566894531,53.75260925292969,0.0,0.0,0.0,-0.0,0.31140056252479553,0.941037654876709,-0.180236354470253,5.737760066986084,4.440659999847412,2.8841400146484375,0.0,538470.0
1.0,-58.54030227661133,-7.495800018310547,-92.69908142089844,-57.58308029174805,0.0,0.0,0.0,-0.0,0.31140056252479553,0.941037654876709,-0.180236354470253,5.737760066986084,4.440659999847412,2.8841400146484375,0.0,538471.0
1.0,-65.7872314453125,21.658920288085938,-184.72650146484375,-142.21693420410156,0.0,0.0,-0.0,-0.0,0.3061515688896179,0.935544490814209,-0.179015651345253,-4.440659999847412,3.1435599327087402,0.4730600118637085,0.0,538472.0
1.0,-51.275726318359375,37.25612258911133,-186.68955993652344,-154.2163848876953,0.0,0.0,-0.0,-0.0,0.3061515688896179,0.935544490814209,-0.179015651345253,-4.440659999847412,3.1435599327087402,0.4730600118637085,0.0,538473.0
1.0,-15.889304161071777,31.6494197845459,-91.8985824584961,-84.40855407714844,0.0,0.0,-0.0,-0.0,0.3061515688896179,0.935544490814209,-0.179015651345253,-4.440659999847412,3.1435599327087402,0.4730600118637085,0.0,538474.0
1.0,21.714670181274414,8.798802375793457,46.95265197753906,29.015151977539062,0.0,0.0,-0.0,-0.0,0.3061515688896179,0.935544490814209,-0.179015651345253,-4.440659999847412,3.1435599327087402,0.4730600118637085,0.0,538475.0
1.0,30.364259719848633,-19.098209381103516,143.69598388671875,115.1109848022461,0.0,0.0,-0.0,-0.0,0.3061515688896179,0.935544490814209,-0.179015651345253,-4.440659999847412,3.1435599327087402,0.4730600118637085,0.0,538476.0
1.0,1.586261510848999,-37.153778076171875,142.17706298828125,120.10800170898438,0.0,0.0,-0.0,-0.0,0.3061515688896179,0.935544490814209,-0.179015651345253,-4.440659999847412,3.1435599327087402,0.4730600118637085,0.0,538477.0
1.0,-33.018402099609375,-34.886051177978516,56.99836730957031,51.07474899291992,0.0,0.0,-0.0,-0.0,0.3061515688896179,0.935544490814209,-0.179015651345253,-4.440659999847412,3.1435599327087402,0.4730600118637085,0.0,538478.0
1.0,-34.3361701965332,-12.59183120727539,-47.21912384033203,-36.4815559387207,0.0,0.0,-0.0,-0.0,0.3061515688896179,0.935544490814209,-0.179015651345253,-4.440659999847412,3.1435599327087402,0.4730600118637085,0.0,538479.0
1.0,7.153599262237549,17.8346004486084,-104.7074203491211,-87.12464141845703,0.0,0.0,-0.0,-0.0,0.3061515688896179,0.935544490814209,-0.179015651345253,-4.440659999847412,3.1435599327087402,0.4730600118637085,0.0,538480.0
1.0,64.65789794921875,39.08823013305664,-87.87380981445312,-79.77803802490234,0.0,0.0,-0.0,-0.0,0.3061515688896179,0.935544490814209,-0.179015651345253,-4.440659999847412,3.1435599327087402,0.4730600118637085,0.0,538481.0
1.0,94.67054748535156,38.809120178222656,-18.470905303955078,-29.042741775512695,0.0,0.0,-0.0,-0.0,0.3046867251396179,0.9175391793251038,-0.17401078343391418,1.0834599733352661,5.325739860534668,-2.487380027770996,0.0,538482.0
1.0,68.37136840820312,16.976022720336914,54.11288833618164,33.380577087402344,0.0,0.0,-0.0,-0.0,0.3046867251396179,0.9175391793251038,-0.17401078343391418,1.0834599733352661,5.325739860534668,-2.487380027770996,0.0,538483.0
1.0,-5.100927352905273,-14.386347770690918,87.54252624511719,77.19864654541016,0.0,0.0,-0.0,-0.0,0.3046867251396179,0.9175391793251038,-0.17401078343391418,1.0834599733352661,5.325739860534668,-2.487380027770996,0.0,538484.0
1.0,-84.5542221069336,-37.81495666503906,65.55731964111328,80.73423767089844,0.0,0.0,-0.0,-0.0,0.3046867251396179,0.9175391793251038,-0.17401078343391418,1.0834599733352661,5.325739860534668,-2.487380027770996,0.0,538485.0
1.0,-125.92317962646484,-40.28050994873047,0.8068799376487732,35.86392593383789,0.0,0.0,-0.0,-0.0,0.3046867251396179,0.9175391793251038,-0.17401078343391418,1.0834599733352661,5.325739860534668,-2.487380027770996,0.0,538486.0
1.0,-105.33522033691406,-20.612384796142578,-69.55522155761719,-40.69414138793945,0.0,0.0,-0.0,-0.0,0.3046867251396179,0.9175391793251038,-0.17401078343391418,1.0834599733352661,5.325739860534668,-2.487380027770996,0.0,538487.0
1.0,-30.1042423248291,10.216814041137695,-102.7070083618164,-105.31005096435547,0.0,0.0,-0.0,-0.0,0.3046867251396179,0.9175391793251038,-0.17401078343391418,1.0834599733352661,5.325739860534668,-2.487380027770996,0.0,538488.0
1.0,63.056156158447266,35.14129638671875,-74.53297424316406,-111.22588348388672,0.0,0.0,-0.0,-0.0,0.3046867251396179,0.9175391793251038,-0.17401078343391418,1.0834599733352661,5.325739860534668,-2.487380027770996,0.0,538489.0
1.0,128.06976318359375,40.56914520263672,4.571994781494141,-46.23255920410156,0.0,0.0,-0.0,-0.0,0.3046867251396179,0.9175391793251038,-0.17401078343391418,1.0834599733352661,5.325739860534668,-2.487380027770996,0.0,538490.0
1.0,130.29885864257812,23.716129302978516,88.48529815673828,53.01640701293945,0.0,0.0,-0.0,-0.0,0.3046867251396179,0.9175391793251038,-0.17401078343391418,1.0834599733352661,5.325739860534668,-2.487380027770996,0.0,538491.0
1.0,63.90554428100586,-6.687137603759766,124.19173431396484,127.56956481933594,0.0,0.0,-0.0,-0.0,0.3060294985771179,0.9151588082313538,-0.16998247802257538,9.522239685058594,3.3571999073028564,-2.1516599655151367,0.0,538492.0
1.0,-32.75432586669922,-34.48851013183594,94.54176330566406,137.33267211914062,0.0,0.0,-0.0,-0.0,0.3060294985771179,0.9151588082313538,-0.16998247802257538,9.522239685058594,3.3571999073028564,-2.1516599655151367,0.0,538493.0
1.0,-97.58557891845703,-43.906192779541016,24.89537239074707,81.49665832519531,0.0,0.0,-0.0,-0.0,0.3060294985771179,0.9151588082313538,-0.16998247802257538,9.522239685058594,3.3571999073028564,-2.1516599655151367,0.0,538494.0
1.0,-94.44029998779297,-28.70732879638672,-46.23518753051758,-9.303466796875,0.0,0.0,-0.0,-0.0,0.3060294985771179,0.9151588082313538,-0.16998247802257538,9.522239685058594,3.3571999073028564,-2.1516599655151367,0.0,538495.0
1.0,-34.50271224975586,3.5343852043151855,-88.55045318603516,-90.63786315917969,0.0,0.0,-0.0,-0.0,0.3060294985771179,0.9151588082313538,-0.16998247802257538,9.522239685058594,3.3571999073028564,-2.1516599655151367,0.0,538496.0
1.0,35.2633171081543,34.840118408203125,-89.93192291259766,-125.02947235107422,0.0,0.0,-0.0,-0.0,0.3060294985771179,0.9151588082313538,-0.16998247802257538,9.522239685058594,3.3571999073028564,-2.1516599655151367,0.0,538497.0
1.0,59.5546989440918,46.855926513671875,-63.861289978027344,-105.74757385253906,0.0,0.0,-0.0,-0.0,0.3060294985771179,0.9151588082313538,-0.16998247802257538,9.522239685058594,3.3571999073028564,-2.1516599655151367,0.0,538498.0
1.0,19.906301498413086,32.57006072998047,-31.688833236694336,-54.6610107421875,0.0,0.0,-0.0,0.0,0.3060294985771179,0.9151588082313538,-0.16998247802257538,9.522239685058594,3.3571999073028564,-2.1516599655151367,0.0,538499.0
1.0,-46.102783203125,0.3701475262641907,1.5276036262512207,5.0914626121521,0.0,0.0,-0.0,0.0,0.3060294985771179,0.9151588082313538,-0.16998247802257538,9.522239685058594,3.3571999073028564,-2.1516599655151367,0.0,538500.0
1.0,-83.58792877197266,-31.965627670288086,36.27326583862305,55.994178771972656,0.0,0.0,-0.0,0.0,0.3060294985771179,0.9151588082313538,-0.16998247802257538,9.522239685058594,3.3571999073028564,-2.1516599655151367,0.0,538501.0
1.0,-65.52716064453125,-47.058746337890625,60.988216400146484,79.67049407958984,0.0,0.0,-0.0,0.0,0.3010856509208679,0.929807186126709,-0.16729693114757538,3.998120069503784,-1.388659954071045,-0.6104000210762024,0.0,538502.0
1.0,-0.6906629204750061,-36.64579772949219,62.570274353027344,68.34322357177734,0.0,0.0,-0.0,0.0,0.3010856509208679,0.929807186126709,-0.16729693114757538,3.998120069503784,-1.388659954071045,-0.6104000210762024,0.0,538503.0
1.0,79.80547332763672,-5.851252555847168,42.728546142578125,35.231266021728516,0.0,0.0,-0.0,0.0,0.3010856509208679,0.929807186126709,-0.16729693114757538,3.998120069503784,-1.388659954071045,-0.6104000210762024,0.0,538504.0
1.0,135.76808166503906,29.14764976501465,15.423101425170898,2.3880701065063477,0.0,0.0,-0.0,0.0,0.3010856509208679,0.929807186126709,-0.16729693114757538,3.998120069503784,-1.388659954071045,-0.6104000210762024,0.0,538505.0
1.0,132.75686645507812,49.161319732666016,-7.41580057144165,-17.982147216796875,0.0,0.0,-0.0,0.0,0.3010856509208679,0.929807186126709,-0.16729693114757538,3.998120069503784,-1.388659954071045,-0.6104000210762024,0.0,538506.0
1.0,59.7480583190918,42.727169036865234,-23.900955200195312,-25.81745147705078,0.0,0.0,-0.0,0.0,0.3010856509208679,0.929807186126709,-0.16729693114757538,3.998120069503784,-1.388659954071045,-0.6104000210762024,0.0,538507.0
1.0,-57.00711441040039,12.897809028625488,-35.413734436035156,-24.342756271362305,0.0,0.0,-0.0,0.0,0.3010856509208679,0.929807186126709,-0.16729693114757538,3.998120069503784,-1.388659954071045,-0.6104000210762024,0.0,538508.0
1.0,-157.3892059326172,-24.58873176574707,-38.2136116027832,-16.982763290405273,0.0,0.0,-0.0,0.0,0.3010856509208679,0.929807186126709,-0.16729693114757538,3.998120069503784,-1.388659954071045,-0.6104000210762024,0.0,538509.0
1.0,-184.43191528320312,-49.6959228515625,-30.703548431396484,-9.504133224487305,0.0,0.0,-0.0,0.0,0.3010856509208679,0.929807186126709,-0.16729693114757538,3.998120069503784,-1.388659954071045,-0.6104000210762024,0.0,538510.0
1.0,-124.0131607055664,-48.81215286254883,-18.639774322509766,-7.542342662811279,0.0,0.0,-0.0,0.0,0.3010856509208679,0.929807186126709,-0.16729693114757538,3.998120069503784,-1.388659954071045,-0.6104000210762024,0.0,538511.0
1.0,-7.6651692390441895,-22.3529052734375,-7.009521961212158,-11.768712043762207,0.0,0.0,-0.0,0.0,0.3025504946708679,0.935727596282959,-0.16778521239757538,1.6480799913406372,-3.525059938430786,0.3052000105381012,0.0,538512.0
1.0,107.88736724853516,15.470173835754395,3.360429048538208,-17.60434341430664,0.0,0.0,-0.0,0.0,0.3025504946708679,0.935727596282959,-0.16778521239757538,1.6480799913406372,-3.525059938430786,0.3052000105381012,0.0,538513.0
1.0,167.85067749023438,44.50917053222656,13.86815357208252,-16.078107833862305,0.0,0.0,-0.0,0.0,0.3025504946708679,0.935727596282959,-0.16778521239757538,1.6480799913406372,-3.525059938430786,0.3052000105381012,0.0,538514.0
1.0,148.3594970703125,49.99542999267578,26.609203338623047,0.9815928339958191,0.0,0.0,-0.0,0.0,0.3025504946708679,0.935727596282959,-0.16778521239757538,1.6480799913406372,-3.525059938430786,0.3052000105381012,0.0,538515.0
1.0,68.48792266845703,30.195302963256836,42.03074645996094,31.507261276245117,0.0,0.0,-0.0,0.0,0.3025504946708679,0.935727596282959,-0.16778521239757538,1.6480799913406372,-3.525059938430786,0.3052000105381012,0.0,538516.0
1.0,-26.711828231811523,-4.039828777313232,54.769203186035156,61.17909240722656,0.0,0.0,-0.0,0.0,0.3025504946708679,0.935727596282959,-0.16778521239757538,1.6480799913406372,-3.525059938430786,0.3052000105381012,0.0,538517.0
1.0,-93.966796875,-35.07929229736328,51.9144401550293,69.60115814208984,0.0,0.0,-0.0,0.0,0.3025504946708679,0.935727596282959,-0.16778521239757538,1.6480799913406372,-3.525059938430786,0.3052000105381012,0.0,538518.0
1.0,-108.69690704345703,-46.828182220458984,24.092941284179688,43.56266403198242,0.0,0.0,-0.0,0.0,0.3025504946708679,0.935727596282959,-0.16778521239757538,1.6480799913406372,-3.525059938430786,0.3052000105381012,0.0,538519.0
1.0,-72.26325988769531,-33.33934020996094,-22.719749450683594,-9.824301719665527,0.0,0.0,-0.0,0.0,0.3025504946708679,0.935727596282959,-0.16778521239757538,1.6480799913406372,-3.525059938430786,0.3052000105381012,0.0,538520.0
1.0,-11.642255783081055,-2.4600117206573486,-70.63681030273438,-65.4267349243164,0.0,0.0,-0.0,0.0,0.3025504946708679,0.935727596282959,-0.16778521239757538,1.6480799913406372,-3.525059938430786,0.3052000105381012,0.0,538521.0
1.0,37.66724395751953,28.479019165039062,-96.21385192871094,-93.51348876953125,0.0,0.0,-0.0,0.0,0.3031608462333679,0.933774471282959,-0.16711382567882538,4.974760055541992,-1.2055399417877197,1.9838000535964966,0.0,538522.0
1.0,55.985130310058594,42.714115142822266,-78.6277084350586,-75.0803451538086,0.0,0.0,-0.0,0.0,0.3031608462333679,0.933774471282959,-0.16711382567882538,4.974760055541992,-1.2055399417877197,1.9838000535964966,0.0,538523.0
1.0,45.690452575683594,33.655677795410156,-17.711284637451172,-15.797038078308105,0.0,0.0,-0.0,0.0,0.3031608462333679,0.933774471282959,-0.16711382567882538,4.974760055541992,-1.2055399417877197,1.9838000535964966,0.0,538524.0
1.0,19.185914993286133,7.365202903747559,57.264835357666016,52.87343215942383,0.0,0.0,-0.0,0.0,0.3031608462333679,0.933774471282959,-0.16711382567882538,4.974760055541992,-1.2055399417877197,1.9838000535964966,0.0,538525.0
1.0,-13.885370254516602,-22.294178009033203,100.15370178222656,89.11219787597656,0.0,0.0,-0.0,0.0,0.3031608462333679,0.933774471282959,-0.16711382567882538,4.974760055541992,-1.2055399417877197,1.9838000535964966,0.0,538526.0
1.0,-44.70310592651367,-40.40316390991211,79.52471923828125,67.80992126464844,0.0,0.0,-0.0,0.0,0.3031608462333679,0.933774471282959,-0.16711382567882538,4.974760055541992,-1.2055399417877197,1.9838000535964966,0.0,538527.0
1.0,-55.216094970703125,-37.20878601074219,10.35757827758789,4.161418914794922,0.0,0.0,-0.0,0.0,0.3031608462333679,0.933774471282959,-0.16711382567882538,4.974760055541992,-1.2055399417877197,1.9838000535964966,0.0,538528.0
1.0,-32.089664459228516,-13.695979118347168,-59.312374114990234,-58.2685432434082,0.0,0.0,-0.0,0.0,0.3031608462333679,0.933774471282959,-0.16711382567882538,4.974760055541992,-1.2055399417877197,1.9838000535964966,0.0,538529.0
1.0,9.512386322021484,17.32965660095215,-92.73436737060547,-85.42109680175781,0.0,0.0,-0.0,0.0,0.3031608462333679,0.933774471282959,-0.16711382567882538,4.974760055541992,-1.2055399417877197,1.9838000535964966,0.0,538530.0
1.0,39.2122802734375,38.18719482421875,-79.37376403808594,-69.51962280273438,0.0,0.0,-0.0,0.0,0.3031608462333679,0.933774471282959,-0.16711382567882538,4.974760055541992,-1.2055399417877197,1.9838000535964966,0.0,538531.0
1.0,42.16901779174805,37.376277923583984,-25.707975387573242,-20.63176727294922,0.0,0.0,-0.0,0.0,0.3055412173271179,0.923886775970459,-0.17346146702766418,15.702540397644043,0.8240399956703186,3.7692201137542725,0.0,538532.0
1.0,24.17652130126953,16.05229949951172,47.0263671875,42.307838439941406,0.0,0.0,-0.0,0.0,0.3055412173271179,0.923886775970459,-0.17346146702766418,15.702540397644043,0.8240399956703186,3.7692201137542725,0.0,538533.0
1.0,1.1922190189361572,-13.439555168151855,106.18014526367188,93.97742462158203,0.0,0.0,-0.0,0.0,0.3055412173271179,0.923886775970459,-0.17346146702766418,15.702540397644043,0.8240399956703186,3.7692201137542725,0.0,538534.0
1.0,-11.10871696472168,-34.42634201049805,121.4428939819336,107.84284210205078,0.0,0.0,-0.0,0.0,0.3055412173271179,0.923886775970459,-0.17346146702766418,15.702540397644043,0.8240399956703186,3.7692201137542725,0.0,538535.0
1.0,-5.256540298461914,-35.06968307495117,84.13227844238281,73.49817657470703,0.0,0.0,-0.0,0.0,0.3055412173271179,0.923886775970459,-0.17346146702766418,15.702540397644043,0.8240399956703186,3.7692201137542725,0.0,538536.0
1.0,14.453737258911133,-15.107128143310547,12.4031982421875,7.299104690551758,0.0,0.0,-0.0,0.0,0.3055412173271179,0.923886775970459,-0.17346146702766418,15.702540397644043,0.8240399956703186,3.7692201137542725,0.0,538537.0
1.0,27.219200134277344,13.707919120788574,-69.04283905029297,-63.703243255615234,0.0,0.0,-0.0,0.0,0.3055412173271179,0.923886775970459,-0.17346146702766418,15.702540397644043,0.8240399956703186,3.7692201137542725,0.0,538538.0
1.0,8.97799015045166,34.173587799072266,-136.52845764160156,-114.6900405883789,0.0,0.0,-0.0,0.0,0.3055412173271179,0.923886775970459,-0.17346146702766418,15.702540397644043,0.8240399956703186,3.7692201137542725,0.0,538539.0
1.0,-36.59637451171875,34.425228118896484,-157.47474670410156,-121.99485778808594,0.0,0.0,-0.0,0.0,0.3055412173271179,0.923886775970459,-0.17346146702766418,15.702540397644043,0.8240399956703186,3.7692201137542725,0.0,538540.0
1.0,-75.45411682128906,14.857030868530273,-107.2490005493164,-75.45142364501953,0.0,0.0,-0.0,0.0,0.3055412173271179,0.923886775970459,-0.17346146702766418,15.702540397644043,0.8240399956703186,3.7692201137542725,0.0,538541.0
1.0,-74.67556762695312,-13.543633460998535,0.4988555312156677,7.89841890335083,0.0,0.0,-0.0,0.0,0.31140056252479553,0.930234432220459,-0.182067409157753,12.818400382995605,2.838360071182251,5.417300224304199,0.0,538542.0
1.0,-30.07144546508789,-35.51899337768555,112.21684265136719,89.31481170654297,0.0,0.0,-0.0,0.0,0.31140056252479553,0.930234432220459,-0.182067409157753,12.818400382995605,2.838360071182251,5.417300224304199,0.0,538543.0
1.0,32.82374954223633,-38.81746292114258,166.19464111328125,126.35855102539062,0.0,0.0,-0.0,0.0,0.31140056252479553,0.930234432220459,-0.182067409157753,12.818400382995605,2.838360071182251,5.417300224304199,0.0,538544.0
1.0,79.84637451171875,-20.63343048095703,133.0113067626953,96.03434753417969,0.0,0.0,-0.0,0.0,0.31140056252479553,0.930234432220459,-0.182067409157753,12.818400382995605,2.838360071182251,5.417300224304199,0.0,538545.0
1.0,90.7611312866211,10.15537166595459,34.93586730957031,14.179162979125977,0.0,0.0,-0.0,0.0,0.31140056252479553,0.930234432220459,-0.182067409157753,12.818400382995605,2.838360071182251,5.417300224304199,0.0,538546.0
1.0,65.45401000976562,36.969505310058594,-68.45436096191406,-68.32235717773438,0.0,0.0,-0.0,0.0,0.31140056252479553,0.930234432220459,-0.182067409157753,12.818400382995605,2.838360071182251,5.417300224304199,0.0,538547.0
1.0,18.198246002197266,44.767391204833984,-118.25955200195312,-100.41290283203125,0.0,0.0,-0.0,0.0,0.31140056252479553,0.930234432220459,-0.182067409157753,12.818400382995605,2.838360071182251,5.417300224304199,0.0,538548.0
1.0,-27.85519790649414,29.156234741210938,-90.19346618652344,-65.67281341552734,0.0,0.0,-0.0,0.0,0.31140056252479553,0.930234432220459,-0.182067409157753,12.818400382995605,2.838360071182251,5.417300224304199,0.0,538549.0
1.0,-48.9538459777832,-1.5277745723724365,-2.8978004455566406,14.13420295715332,0.0,0.0,-0.0,0.0,0.31140056252479553,0.930234432220459,-0.182067409157753,12.818400382995605,2.838360071182251,5.417300224304199,0.0,538550.0
1.0,-38.34588623046875,-31.574256896972656,90.109130859375,92.4271240234375,0.0,0.0,-0.0,0.0,0.31140056252479553,0.930234432220459,-0.182067409157753,12.818400382995605,2.838360071182251,5.417300224304199,0.0,538551.0
1.0,-19.67054557800293,-46.375465393066406,118.9345703125,114.58124542236328,0.0,0.0,0.0,0.0,0.30993571877479553,0.940854549407959,-0.1843256950378418,1.2208000421524048,3.1282999515533447,5.2189202308654785,0.0,538552.0
1.0,-24.580713272094727,-39.4376220703125,46.02369689941406,52.17825698852539,0.0,0.0,0.0,0.0,0.30993571877479553,0.940854549407959,-0.1843256950378418,1.2208000421524048,3.1282999515533447,5.2189202308654785,0.0,538553.0
1.0,-49.29131317138672,-14.373733520507812,-86.03825378417969,-64.12838745117188,0.0,0.0,0.0,0.0,0.30993571877479553,0.940854549407959,-0.1843256950378418,1.2208000421524048,3.1282999515533447,5.2189202308654785,0.0,538554.0
1.0,-56.596858978271484,17.146926879882812,-180.0121612548828,-158.20822143554688,0.0,0.0,0.0,0.0,0.30993571877479553,0.940854549407959,-0.1843256950378418,1.2208000421524048,3.1282999515533447,5.2189202308654785,0.0,538555.0
1.0,-23.76633644104004,39.77983093261719,-165.96017456054688,-164.41664123535156,0.0,0.0,0.0,0.0,0.30993571877479553,0.940854549407959,-0.1843256950378418,1.2208000421524048,3.1282999515533447,5.2189202308654785,0.0,538556.0
1.0,32.8620719909668,42.0035400390625,-51.34307861328125,-75.32749938964844,0.0,0.0,0.0,0.0,0.30993571877479553,0.940854549407959,-0.1843256950378418,1.2208000421524048,3.1282999515533447,5.2189202308654785,0.0,538557.0
1.0,78.69612121582031,23.12077522277832,97.25804901123047,58.492523193359375,0.0,0.0,0.0,0.0,0.30993571877479553,0.940854549407959,-0.1843256950378418,1.2208000421524048,3.1282999515533447,5.2189202308654785,0.0,538558.0
1.0,90.34932708740234,-6.232235908508301,203.01376342773438,165.96929931640625,0.0,0.0,0.0,0.0,0.30993571877479553,0.940854549407959,-0.1843256950378418,1.2208000421524048,3.1282999515533447,5.2189202308654785,0.0,538559.0
1.0,66.32561492919922,-30.100814819335938,215.5673065185547,193.49732971191406,0.0,0.0,0.0,0.0,0.30993571877479553,0.940854549407959,-0.1843256950378418,1.2208000421524048,3.1282999515533447,5.2189202308654785,0.0,538560.0
1.0,22.693002700805664,-35.857337951660156,130.6598663330078,129.4158172607422,0.0,0.0,0.0,0.0,0.30993571877479553,0.940854549407959,-0.1843256950378418,1.2208000421524048,3.1282999515533447,5.2189202308654785,0.0,538561.0
1.0,-18.837434768676758,-20.994401931762695,-10.11141300201416,8.206204414367676,0.0,0.0,0.0,0.0,0.31530681252479553,0.941220760345459,-0.1838984489440918,-6.836480140686035,5.737760066986084,5.7530198097229,0.0,538562.0
1.0,-44.29145812988281,5.654726505279541,-141.57647705078125,-109.74662017822266,0.0,0.0,0.0,0.0,0.31530681252479553,0.941220760345459,-0.1838984489440918,-6.836480140686035,5.737760066986084,5.7530198097229,0.0,538563.0
1.0,-51.00254821777344,28.741336822509766,-203.7783966064453,-168.85653686523438,0.0,0.0,0.0,0.0,0.31530681252479553,0.941220760345459,-0.1838984489440918,-6.836480140686035,5.737760066986084,5.7530198097229,0.0,538564.0
1.0,-42.39874267578125,35.107215881347656,-169.5644989013672,-145.0344696044922,0.0,0.0,0.0,0.0,0.31530681252479553,0.941220760345459,-0.1838984489440918,-6.836480140686035,5.737760066986084,5.7530198097229,0.0,538565.0
1.0,-25.7558650970459,21.176923751831055,-60.52483367919922,-55.716514587402344,0.0,0.0,0.0,0.0,0.31530681252479553,0.941220760345459,-0.1838984489440918,-6.836480140686035,5.737760066986084,5.7530198097229,0.0,538566.0
1.0,-12.395234107971191,-5.714566707611084,63.70256423950195,51.41333770751953,0.0,0.0,0.0,0.0,0.31530681252479553,0.941220760345459,-0.1838984489440918,-6.836480140686035,5.737760066986084,5.7530198097229,0.0,538567.0
1.0,-10.204901695251465,-31.185216903686523,137.31796264648438,120.62875366210938,0.0,0.0,0.0,0.0,0.31530681252479553,0.941220760345459,-0.1838984489440918,-6.836480140686035,5.737760066986084,5.7530198097229,0.0,538568.0
1.0,-12.755419731140137,-40.941768646240234,127.38882446289062,116.88968658447266,0.0,0.0,0.0,0.0,0.31530681252479553,0.941220760345459,-0.1838984489440918,-6.836480140686035,5.737760066986084,5.7530198097229,0.0,538569.0
1.0,-3.3121657371520996,-28.791872024536133,54.1445426940918,49.493431091308594,0.0,0.0,0.0,0.0,0.31530681252479553,0.941220760345459,-0.1838984489440918,-6.836480140686035,5.737760066986084,5.7530198097229,0.0,538570.0
1.0,24.224409103393555,-0.4962904453277588,-30.994068145751953,-35.922088623046875,0.0,0.0,0.0,0.0,0.31530681252479553,0.941220760345459,-0.1838984489440918,-6.836480140686035,5.737760066986084,5.7530198097229,0.0,538571.0
1.0,52.768951416015625,28.829843521118164,-84.10884857177734,-90.99851989746094,0.0,0.0,0.0,0.0,0.31408610939979553,0.930356502532959,-0.17468217015266418,-2.8536200523376465,4.928979873657227,4.028639793395996,0.0,538572.0
1.0,56.99870681762695,42.8099479675293,-87.07699584960938,-91.80854034423828,0.0,0.0,0.0,0.0,0.31408610939979553,0.930356502532959,-0.17468217015266418,-2.8536200523376465,4.928979873657227,4.028639793395996,0.0,538573.0
1.0,29.96940803527832,33.681678771972656,-45.38619613647461,-44.90129470825195,0.0,0.0,0.0,0.0,0.31408610939979553,0.930356502532959,-0.17468217015266418,-2.8536200523376465,4.928979873657227,4.028639793395996,0.0,538574.0
1.0,-10.035778045654297,6.850133895874023,19.90387535095215,23.659318923950195,0.0,0.0,0.0,0.0,0.31408610939979553,0.930356502532959,-0.17468217015266418,-2.8536200523376465,4.928979873657227,4.028639793395996,0.0,538575.0
1.0,-37.628658294677734,-22.787004470825195,78.08071899414062,81.21484375,0.0,0.0,0.0,0.0,0.31408610939979553,0.930356502532959,-0.17468217015266418,-2.8536200523376465,4.928979873657227,4.028639793395996,0.0,538576.0
1.0,-39.81044006347656,-39.16261291503906,97.7058334350586,98.43936157226562,0.0,0.0,0.0,0.0,0.31408610939979553,0.930356502532959,-0.17468217015266418,-2.8536200523376465,4.928979873657227,4.028639793395996,0.0,538577.0
1.0,-20.162704467773438,-33.50836181640625,64.9168472290039,64.47631072998047,0.0,0.0,0.0,0.0,0.31408610939979553,0.930356502532959,-0.17468217015266418,-2.8536200523376465,4.928979873657227,4.028639793395996,0.0,538578.0
1.0,10.012990951538086,-8.865656852722168,-1.5297125577926636,-1.4951707124710083,0.0,0.0,0.0,0.0,0.31408610939979553,0.930356502532959,-0.17468217015266418,-2.8536200523376465,4.928979873657227,4.028639793395996,0.0,538579.0
1.0,38.744808197021484,21.353546142578125,-59.69526672363281,-60.482627868652344,0.0,0.0,0.0,0.0,0.31408610939979553,0.930356502532959,-0.17468217015266418,-2.8536200523376465,4.928979873657227,4.028639793395996,0.0,538580.0
1.0,49.612945556640625,40.00626754760742,-78.1605224609375,-82.06639862060547,0.0,0.0,0.0,-0.0,0.31408610939979553,0.930356502532959,-0.17468217015266418,-2.8536200523376465,4.928979873657227,4.028639793395996,0.0,538581.0
1.0,25.943321228027344,35.934104919433594,-58.7826042175293,-62.99198532104492,0.0,0.0,0.0,-0.0,0.31024089455604553,0.9158301949501038,-0.16644243896007538,6.165040016174316,3.31141996383667,6.134520053863525,0.0,538582.0
1.0,-29.67143440246582,10.882682800292969,-24.20172882080078,-19.57585334777832,0.0,0.0,0.0,-0.0,0.31024089455604553,0.9158301949501038,-0.16644243896007538,6.165040016174316,3.31141996383667,6.134520053863525,0.0,538583.0
1.0,-87.59820556640625,-21.44552993774414,5.608462333679199,26.420581817626953,0.0,0.0,0.0,-0.0,0.31024089455604553,0.9158301949501038,-0.16644243896007538,6.165040016174316,3.31141996383667,6.134520053863525,0.0,538584.0
1.0,-106.55892944335938,-42.76102066040039,23.549264907836914,54.45686340332031,0.0,0.0,0.0,-0.0,0.31024089455604553,0.9158301949501038,-0.16644243896007538,6.165040016174316,3.31141996383667,6.134520053863525,0.0,538585.0
1.0,-61.94926452636719,-40.456634521484375,32.48649597167969,53.549747467041016,0.0,0.0,0.0,-0.0,0.31024089455604553,0.9158301949501038,-0.16644243896007538,6.165040016174316,3.31141996383667,6.134520053863525,0.0,538586.0
1.0,28.506935119628906,-15.44786262512207,33.033809661865234,26.712505340576172,0.0,0.0,0.0,-0.0,0.31024089455604553,0.9158301949501038,-0.16644243896007538,6.165040016174316,3.31141996383667,6.134520053863525,0.0,538587.0
1.0,108.11135864257812,18.095338821411133,17.291719436645508,-15.874436378479004,0.0,0.0,0.0,-0.0,0.31024089455604553,0.9158301949501038,-0.16644243896007538,6.165040016174316,3.31141996383667,6.134520053863525,0.0,538588.0
1.0,121.42436981201172,41.02916717529297,-17.292877197265625,-59.59646224975586,0.0,0.0,0.0,-0.0,0.31024089455604553,0.9158301949501038,-0.16644243896007538,6.165040016174316,3.31141996383667,6.134520053863525,0.0,538589.0
1.0,61.013832092285156,40.904754638671875,-50.511783599853516,-80.83784484863281,0.0,0.0,0.0,-0.0,0.31024089455604553,0.9158301949501038,-0.16644243896007538,6.165040016174316,3.31141996383667,6.134520053863525,0.0,538590.0
1.0,-26.368494033813477,19.024789810180664,-49.74119567871094,-57.22639083862305,0.0,0.0,0.0,-0.0,0.31024089455604553,0.9158301949501038,-0.16644243896007538,6.165040016174316,3.31141996383667,6.134520053863525,0.0,538591.0
1.0,-82.14691162109375,-12.04262924194336,-3.6252565383911133,8.508057594299316,0.0,0.0,0.0,-0.0,0.3079215884208679,0.9128394722938538,-0.16448932886123657,9.461199760437012,-0.366239994764328,2.746799945831299,0.0,538592.0
1.0,-76.11676788330078,-35.81970977783203,62.817806243896484,82.74553680419922,0.0,0.0,0.0,-0.0,0.3079215884208679,0.9128394722938538,-0.16448932886123657,9.461199760437012,-0.366239994764328,2.746799945831299,0.0,538593.0
1.0,-19.844955444335938,-39.734153747558594,103.3406982421875,119.90624237060547,0.0,0.0,0.0,-0.0,0.3079215884208679,0.9128394722938538,-0.16448932886123657,9.461199760437012,-0.366239994764328,2.746799945831299,0.0,538594.0
1.0,39.29079055786133,-21.85035514831543,78.18468475341797,89.69415283203125,0.0,0.0,0.0,-0.0,0.3079215884208679,0.9128394722938538,-0.16448932886123657,9.461199760437012,-0.366239994764328,2.746799945831299,0.0,538595.0
1.0,56.604469299316406,7.894260406494141,-10.154997825622559,2.588592290878296,0.0,0.0,0.0,-0.0,0.3079215884208679,0.9128394722938538,-0.16448932886123657,9.461199760437012,-0.366239994764328,2.746799945831299,0.0,538596.0
1.0,30.402759552001953,33.31725311279297,-104.87690734863281,-89.15874481201172,0.0,0.0,0.0,-0.0,0.3079215884208679,0.9128394722938538,-0.16448932886123657,9.461199760437012,-0.366239994764328,2.746799945831299,0.0,538597.0
1.0,-8.936784744262695,40.72996139526367,-138.80271911621094,-127.75828552246094,0.0,0.0,0.0,-0.0,0.3079215884208679,0.9128394722938538,-0.16448932886123657,9.461199760437012,-0.366239994764328,2.746799945831299,0.0,538598.0
1.0,-35.41014862060547,26.130056381225586,-89.15628051757812,-91.27389526367188,0.0,0.0,0.0,-0.0,0.3079215884208679,0.9128394722938538,-0.16448932886123657,9.461199760437012,-0.366239994764328,2.746799945831299,0.0,538599.0
1.0,-40.6032829284668,-3.0409300327301025,12.234552383422852,-5.012426853179932,0.0,0.0,0.0,-0.0,0.3079215884208679,0.9128394722938538,-0.16448932886123657,9.461199760437012,-0.366239994764328,2.746799945831299,0.0,538600.0
1.0,-26.381267547607422,-31.705381393432617,106.19985961914062,79.05545043945312,0.0,0.0,0.0,-0.0,0.3079215884208679,0.9128394722938538,-0.16448932886123657,9.461199760437012,-0.366239994764328,2.746799945831299,0.0,538601.0
1.0,2.134178876876831,-44.32130813598633,143.4741668701172,116.89676666259766,0.0,0.0,0.0,-0.0,0.31194987893104553,0.9125342965126038,-0.16332966089248657,3.280900001525879,-0.8850799798965454,-2.10588002204895,0.0,538602.0
1.0,36.399940490722656,-33.263084411621094,110.5345230102539,95.48644256591797,0.0,0.0,0.0,-0.0,0.31194987893104553,0.9125342965126038,-0.16332966089248657,3.280900001525879,-0.8850799798965454,-2.10588002204895,0.0,538603.0
1.0,60.48113250732422,-3.8296966552734375,28.445402145385742,30.41989517211914,0.0,0.0,0.0,-0.0,0.31194987893104553,0.9125342965126038,-0.16332966089248657,3.280900001525879,-0.8850799798965454,-2.10588002204895,0.0,538604.0
1.0,55.82106018066406,28.154314041137695,-63.76474380493164,-46.27415466308594,0.0,0.0,0.0,-0.0,0.31194987893104553,0.9125342965126038,-0.16332966089248657,3.280900001525879,-0.8850799798965454,-2.10588002204895,0.0,538605.0
1.0,17.099918365478516,45.05417251586914,-125.21819305419922,-98.32828521728516,0.0,0.0,0.0,-0.0,0.31194987893104553,0.9125342965126038,-0.16332966089248657,3.280900001525879,-0.8850799798965454,-2.10588002204895,0.0,538606.0
1.0,-38.98165512084961,37.637882232666016,-130.2227325439453,-103.75359344482422,0.0,0.0,0.0,-0.0,0.31194987893104553,0.9125342965126038,-0.16332966089248657,3.280900001525879,-0.8850799798965454,-2.10588002204895,0.0,538607.0
1.0,-81.55332946777344,10.270923614501953,-78.26473236083984,-64.63523864746094,0.0,0.0,0.0,-0.0,0.31194987893104553,0.9125342965126038,-0.16332966089248657,3.280900001525879,-0.8850799798965454,-2.10588002204895,0.0,538608.0
1.0,-86.2022476196289,-22.20514488220215,6.315061569213867,-0.7511149644851685,0.0,0.0,0.0,-0.0,0.31194987893104553,0.9125342965126038,-0.16332966089248657,3.280900001525879,-0.8850799798965454,-2.10588002204895,0.0,538609.0
1.0,-52.467041015625,-42.76417541503906,80.72653198242188,57.858516693115234,0.0,0.0,0.0,-0.0,0.31194987893104553,0.9125342965126038,-0.16332966089248657,3.280900001525879,-0.8850799798965454,-2.10588002204895,0.0,538610.0
1.0,1.4090147018432617,-40.8708610534668,106.2334213256836,82.75716400146484,0.0,0.0,0.0,-0.0,0.31194987893104553,0.9125342965126038,-0.16332966089248657,3.280900001525879,-0.8850799798965454,-2.10588002204895,0.0,538611.0
1.0,54.24140548706055,-17.632366180419922,74.89945983886719,64.42240142822266,0.0,0.0,0.0,-0.0,0.31292644143104553,0.9067359566688538,-0.16473346948623657,6.531280040740967,-2.7010200023651123,-6.271860122680664,0.0,538612.0
1.0,88.7524185180664,14.88652229309082,13.907466888427734,19.395875930786133,0.0,0.0,0.0,-0.0,0.31292644143104553,0.9067359566688538,-0.16473346948623657,6.531280040740967,-2.7010200023651123,-6.271860122680664,0.0,538613.0
1.0,93.67520141601562,39.650516510009766,-34.760498046875,-21.06725311279297,0.0,0.0,0.0,-0.0,0.31292644143104553,0.9067359566688538,-0.16473346948623657,6.531280040740967,-2.7010200023651123,-6.271860122680664,0.0,538614.0
1.0,65.26004028320312,43.64822769165039,-45.18988037109375,-34.85829544067383,0.0,0.0,0.0,-0.0,0.31292644143104553,0.9067359566688538,-0.16473346948623657,6.531280040740967,-2.7010200023651123,-6.271860122680664,0.0,538615.0
1.0,9.691950798034668,24.822120666503906,-22.375825881958008,-22.017314910888672,0.0,0.0,0.0,-0.0,0.31292644143104553,0.9067359566688538,-0.16473346948623657,6.531280040740967,-2.7010200023651123,-6.271860122680664,0.0,538616.0
1.0,-53.457942962646484,-7.223129749298096,10.223505020141602,2.875035047531128,0.0,0.0,0.0,-0.0,0.31292644143104553,0.9067359566688538,-0.16473346948623657,6.531280040740967,-2.7010200023651123,-6.271860122680664,0.0,538617.0
1.0,-96.00045013427734,-35.77268981933594,29.519777297973633,22.507097244262695,0.0,0.0,0.0,-0.0,0.31292644143104553,0.9067359566688538,-0.16473346948623657,6.531280040740967,-2.7010200023651123,-6.271860122680664,0.0,538618.0
1.0,-95.96990966796875,-45.356040954589844,24.256855010986328,23.709421157836914,0.0,0.0,0.0,-0.0,0.31292644143104553,0.9067359566688538,-0.16473346948623657,6.531280040740967,-2.7010200023651123,-6.271860122680664,0.0,538619.0
1.0,-52.367271423339844,-30.757030487060547,-2.7429094314575195,2.14109206199646,0.0,0.0,0.0,-0.0,0.31292644143104553,0.9067359566688538,-0.16473346948623657,6.531280040740967,-2.7010200023651123,-6.271860122680664,0.0,538620.0
1.0,9.660122871398926,-0.19048674404621124,-40.714149475097656,-34.618282318115234,0.0,0.0,0.0,-0.0,0.31292644143104553,0.9067359566688538,-0.16473346948623657,6.531280040740967,-2.7010200023651123,-6.271860122680664,0.0,538621.0
1.0,53.787452697753906,29.625728607177734,-72.16693878173828,-66.70729064941406,0.0,0.0,0.0,-0.0,0.31365886330604553,0.9113746285438538,-0.16558796167373657,5.310480117797852,-3.1740798950195312,-7.85890007019043,0.0,538622.0
1.0,60.69995880126953,43.04747772216797,-73.27833557128906,-69.77921295166016,0.0,0.0,0.0,-0.0,0.31365886330604553,0.9113746285438538,-0.16558796167373657,5.310480117797852,-3.1740798950195312,-7.85890007019043,0.0,538623.0
1.0,39.391448974609375,34.05008316040039,-29.463924407958984,-31.525487899780273,0.0,0.0,0.0,-0.0,0.31365886330604553,0.9113746285438538,-0.16558796167373657,5.310480117797852,-3.1740798950195312,-7.85890007019043,0.0,538624.0
1.0,13.257609367370605,8.589134216308594,47.545372009277344,37.1289176940918,0.0,0.0,0.0,-0.0,0.31365886330604553,0.9113746285438538,-0.16558796167373657,5.310480117797852,-3.1740798950195312,-7.85890007019043,0.0,538625.0
1.0,-2.7045326232910156,-19.649126052856445,116.64045715332031,101.07331085205078,0.0,0.0,0.0,-0.0,0.31365886330604553,0.9113746285438538,-0.16558796167373657,5.310480117797852,-3.1740798950195312,-7.85890007019043,0.0,538626.0
1.0,-12.933080673217773,-36.470237731933594,127.05479431152344,116.10248565673828,0.0,0.0,0.0,-0.0,0.31365886330604553,0.9113746285438538,-0.16558796167373657,5.310480117797852,-3.1740798950195312,-7.85890007019043,0.0,538627.0
1.0,-27.074331283569336,-33.87606430053711,59.01531219482422,63.242530822753906,0.0,0.0,0.0,-0.0,0.31365886330604553,0.9113746285438538,-0.16558796167373657,5.310480117797852,-3.1740798950195312,-7.85890007019043,0.0,538628.0
1.0,-39.81925964355469,-13.737020492553711,-53.22378921508789,-31.00238037109375,0.0,0.0,0.0,-0.0,0.31365886330604553,0.9113746285438538,-0.16558796167373657,5.310480117797852,-3.1740798950195312,-7.85890007019043,0.0,538629.0
1.0,-33.54555892944336,13.00185775756836,-140.0501251220703,-109.63401794433594,0.0,0.0,0.0,-0.0,0.31365886330604553,0.9113746285438538,-0.16558796167373657,5.310480117797852,-3.1740798950195312,-7.85890007019043,0.0,538630.0
1.0,-2.3010687828063965,31.574039459228516,-145.09886169433594,-123.65664672851562,0.0,0.0,0.0,-0.0,0.31365886330604553,0.9113746285438538,-0.16558796167373657,5.310480117797852,-3.1740798950195312,-7.85890007019043,0.0,538631.0
1.0,33.67854309082031,31.458303451538086,-68.72806549072266,-69.42718505859375,0.0,0.0,0.0,-0.0,0.30895915627479553,0.920957088470459,-0.16925005614757538,10.620960235595703,-5.905620098114014,-3.0672600269317627,0.0,538632.0
1.0,47.94562911987305,12.654003143310547,39.951663970947266,14.953977584838867,0.0,0.0,0.0,-0.0,0.30895915627479553,0.920957088470459,-0.16925005614757538,10.620960235595703,-5.905620098114014,-3.0672600269317627,0.0,538633.0
1.0,35.6890754699707,-14.016718864440918,125.72564697265625,86.1737060546875,0.0,0.0,-0.0,-0.0,0.30895915627479553,0.920957088470459,-0.16925005614757538,10.620960235595703,-5.905620098114014,-3.0672600269317627,0.0,538634.0
1.0,10.876516342163086,-32.8184928894043,151.4356231689453,114.99061584472656,0.0,0.0,-0.0,-0.0,0.30895915627479553,0.920957088470459,-0.16925005614757538,10.620960235595703,-5.905620098114014,-3.0672600269317627,0.0,538635.0
1.0,-11.0527982711792,-32.452693939208984,106.05728912353516,89.00635528564453,0.0,0.0,-0.0,-0.0,0.30895915627479553,0.920957088470459,-0.16925005614757538,10.620960235595703,-5.905620098114014,-3.0672600269317627,0.0,538636.0
1.0,-19.456012725830078,-12.73534870147705,11.683760643005371,20.130311965942383,0.0,0.0,-0.0,-0.0,0.30895915627479553,0.920957088470459,-0.16925005614757538,10.620960235595703,-5.905620098114014,-3.0672600269317627,0.0,538637.0
1.0,-12.93421459197998,15.600997924804688,-85.24928283691406,-56.364540100097656,0.0,0.0,-0.0,-0.0,0.30895915627479553,0.920957088470459,-0.16925005614757538,10.620960235595703,-5.905620098114014,-3.0672600269317627,0.0,538638.0
1.0,-2.999046564102173,36.624080657958984,-139.0845489501953,-100.58570861816406,0.0,0.0,-0.0,-0.0,0.30895915627479553,0.920957088470459,-0.16925005614757538,10.620960235595703,-5.905620098114014,-3.0672600269317627,0.0,538639.0
1.0,-2.6999237537384033,38.19550323486328,-126.42132568359375,-91.81939697265625,0.0,0.0,-0.0,-0.0,0.30895915627479553,0.920957088470459,-0.16925005614757538,10.620960235595703,-5.905620098114014,-3.0672600269317627,0.0,538640.0
1.0,-12.252677917480469,19.244306564331055,-54.79533767700195,-39.05942153930664,0.0,0.0,-0.0,-0.0,0.30895915627479553,0.920957088470459,-0.16925005614757538,10.620960235595703,-5.905620098114014,-3.0672600269317627,0.0,538641.0
1.0,-21.966373443603516,-10.296643257141113,39.44965744018555,28.452716827392578,0.0,0.0,-0.0,-0.0,0.30944743752479553,0.930966854095459,-0.16992144286632538,9.903739929199219,-6.3481597900390625,-1.3733999729156494,0.0,538642.0
1.0,-22.48944664001465,-35.18110275268555,107.24406433105469,77.06019592285156,0.0,0.0,-0.0,-0.0,0.30944743752479553,0.930966854095459,-0.16992144286632538,9.903739929199219,-6.3481597900390625,-1.3733999729156494,0.0,538643.0
1.0,-9.472868919372559,-42.150794982910156,114.45750427246094,82.40461730957031,0.0,0.0,-0.0,-0.0,0.30944743752479553,0.930966854095459,-0.16992144286632538,9.903739929199219,-6.3481597900390625,-1.3733999729156494,0.0,538644.0
1.0,14.595755577087402,-26.75957679748535,62.08187484741211,43.14537811279297,0.0,0.0,-0.0,-0.0,0.30944743752479553,0.930966854095459,-0.16992144286632538,9.903739929199219,-6.3481597900390625,-1.3733999729156494,0.0,538645.0
1.0,40.775455474853516,3.4558327198028564,-16.017963409423828,-16.117385864257812,0.0,0.0,-0.0,-0.0,0.30944743752479553,0.930966854095459,-0.16992144286632538,9.903739929199219,-6.3481597900390625,-1.3733999729156494,0.0,538646.0
1.0,56.88770294189453,32.21227264404297,-73.95783233642578,-60.72732162475586,0.0,0.0,-0.0,-0.0,0.30944743752479553,0.930966854095459,-0.16992144286632538,9.903739929199219,-6.3481597900390625,-1.3733999729156494,0.0,538647.0
1.0,50.209327697753906,43.477699279785156,-82.88198852539062,-67.76622772216797,0.0,0.0,-0.0,-0.0,0.30944743752479553,0.930966854095459,-0.16992144286632538,9.903739929199219,-6.3481597900390625,-1.3733999729156494,0.0,538648.0
1.0,11.969855308532715,30.808795928955078,-49.42882537841797,-38.49441909790039,0.0,0.0,-0.0,-0.0,0.30944743752479553,0.930966854095459,-0.16992144286632538,9.903739929199219,-6.3481597900390625,-1.3733999729156494,0.0,538649.0
1.0,-48.018821716308594,0.842751681804657,-1.7833456993103027,6.474328517913818,0.0,0.0,-0.0,-0.0,0.30944743752479553,0.930966854095459,-0.16992144286632538,9.903739929199219,-6.3481597900390625,-1.3733999729156494,0.0,538650.0
1.0,-94.78424835205078,-30.339359283447266,36.601810455322266,43.070926666259766,0.0,0.0,-0.0,-0.0,0.30944743752479553,0.930966854095459,-0.16992144286632538,9.903739929199219,-6.3481597900390625,-1.3733999729156494,0.0,538651.0
1.0,-94.4217529296875,-45.79005432128906,51.61917495727539,53.877647399902344,0.0,0.0,-0.0,-0.0,0.31109538674354553,0.935361385345459,-0.17315629124641418,7.553699970245361,-5.08158016204834,0.2746799886226654,0.0,538652.0
1.0,-44.707794189453125,-36.97809982299805,36.60066604614258,33.22132110595703,0.0,0.0,-0.0,-0.0,0.31109538674354553,0.935361385345459,-0.17315629124641418,7.553699970245361,-5.08158016204834,0.2746799886226654,0.0,538653.0
1.0,26.28803253173828,-8.32528305053711,-0.2879014015197754,-7.608572006225586,0.0,0.0,-0.0,-0.0,0.31109538674354553,0.935361385345459,-0.17315629124641418,7.553699970245361,-5.08158016204834,0.2746799886226654,0.0,538654.0
1.0,82.16376495361328,25.04477310180664,-36.17926788330078,-44.81391143798828,0.0,0.0,-0.0,-0.0,0.31109538674354553,0.935361385345459,-0.17315629124641418,7.553699970245361,-5.08158016204834,0.2746799886226654,0.0,538655.0
1.0,98.18487548828125,45.11268997192383,-46.88111877441406,-56.28102111816406,0.0,0.0,-0.0,-0.0,0.31109538674354553,0.935361385345459,-0.17315629124641418,7.553699970245361,-5.08158016204834,0.2746799886226654,0.0,538656.0
1.0,71.48682403564453,41.19038772583008,-22.935649871826172,-33.776493072509766,0.0,0.0,-0.0,-0.0,0.31109538674354553,0.935361385345459,-0.17315629124641418,7.553699970245361,-5.08158016204834,0.2746799886226654,0.0,538657.0
1.0,18.68393898010254,15.866504669189453,23.496273040771484,13.482192993164062,0.0,0.0,-0.0,-0.0,0.31109538674354553,0.935361385345459,-0.17315629124641418,7.553699970245361,-5.08158016204834,0.2746799886226654,0.0,538658.0
1.0,-33.87116622924805,-17.064804077148438,66.79605865478516,63.122371673583984,0.0,0.0,-0.0,-0.0,0.31109538674354553,0.935361385345459,-0.17315629124641418,7.553699970245361,-5.08158016204834,0.2746799886226654,0.0,538659.0
1.0,-61.303375244140625,-39.96108627319336,81.4139175415039,87.63019561767578,0.0,0.0,-0.0,-0.0,0.31109538674354553,0.935361385345459,-0.17315629124641418,7.553699970245361,-5.08158016204834,0.2746799886226654,0.0,538660.0
1.0,-54.9724006652832,-40.7199592590332,51.480262756347656,65.66482543945312,0.0,0.0,-0.0,0.0,0.31109538674354553,0.935361385345459,-0.17315629124641418,7.553699970245361,-5.08158016204834,0.2746799886226654,0.0,538661.0
1.0,-27.35186767578125,-19.396286010742188,-17.915010452270508,-0.9721910357475281,0.0,0.0,-0.0,0.0,0.31494060158729553,0.933713436126709,-0.179503932595253,5.768280029296875,-2.1821799278259277,3.662400007247925,0.0,538662.0
1.0,3.537639856338501,12.257088661193848,-91.89383697509766,-76.39183044433594,0.0,0.0,-0.0,0.0,0.31494060158729553,0.933713436126709,-0.179503932595253,5.768280029296875,-2.1821799278259277,3.662400007247925,0.0,538663.0
1.0,25.151363372802734,36.97398376464844,-123.49219512939453,-112.37881469726562,0.0,0.0,-0.0,0.0,0.31494060158729553,0.933713436126709,-0.179503932595253,5.768280029296875,-2.1821799278259277,3.662400007247925,0.0,538664.0
1.0,27.689348220825195,41.23678207397461,-91.69780731201172,-89.67977905273438,0.0,0.0,-0.0,0.0,0.31494060158729553,0.933713436126709,-0.179503932595253,5.768280029296875,-2.1821799278259277,3.662400007247925,0.0,538665.0
1.0,8.456718444824219,22.9611759185791,-15.585705757141113,-26.661542892456055,0.0,0.0,-0.0,0.0,0.31494060158729553,0.933713436126709,-0.179503932595253,5.768280029296875,-2.1821799278259277,3.662400007247925,0.0,538666.0
1.0,-20.296720504760742,-7.929906368255615,65.32721710205078,44.00566864013672,0.0,0.0,-0.0,0.0,0.31494060158729553,0.933713436126709,-0.179503932595253,5.768280029296875,-2.1821799278259277,3.662400007247925,0.0,538667.0
1.0,-37.07118606567383,-34.976348876953125,114.53792572021484,91.96720123291016,0.0,0.0,-0.0,0.0,0.31494060158729553,0.933713436126709,-0.179503932595253,5.768280029296875,-2.1821799278259277,3.662400007247925,0.0,538668.0
1.0,-27.234621047973633,-43.42630386352539,111.68328094482422,96.62165069580078,0.0,0.0,-0.0,0.0,0.31494060158729553,0.933713436126709,-0.179503932595253,5.768280029296875,-2.1821799278259277,3.662400007247925,0.0,538669.0
1.0,4.906286716461182,-28.393722534179688,57.809059143066406,55.475685119628906,0.0,0.0,-0.0,0.0,0.31494060158729553,0.933713436126709,-0.179503932595253,5.768280029296875,-2.1821799278259277,3.662400007247925,0.0,538670.0
1.0,39.441890716552734,2.0984139442443848,-23.156856536865234,-10.895785331726074,0.0,0.0,-0.0,0.0,0.31494060158729553,0.933713436126709,-0.179503932595253,5.768280029296875,-2.1821799278259277,3.662400007247925,0.0,538671.0
1.0,56.4544563293457,31.399503707885742,-89.20763397216797,-66.12022399902344,0.0,0.0,-0.0,0.0,0.31304851174354553,0.927487850189209,-0.1847529411315918,4.272799968719482,1.3428800106048584,2.3195199966430664,0.0,538672.0
1.0,47.0204963684082,43.6005973815918,-104.42329406738281,-81.10321807861328,0.0,0.0,-0.0,0.0,0.31304851174354553,0.927487850189209,-0.1847529411315918,4.272799968719482,1.3428800106048584,2.3195199966430664,0.0,538673.0
1.0,13.715245246887207,32.60883331298828,-65.54853057861328,-52.792999267578125,0.0,0.0,-0.0,0.0,0.31304851174354553,0.927487850189209,-0.1847529411315918,4.272799968719482,1.3428800106048584,2.3195199966430664,0.0,538674.0
1.0,-29.595016479492188,4.858737468719482,1.649546504020691,0.26211246848106384,0.0,0.0,-0.0,0.0,0.31304851174354553,0.927487850189209,-0.1847529411315918,4.272799968719482,1.3428800106048584,2.3195199966430664,0.0,538675.0
1.0,-60.5828857421875,-24.818988800048828,62.57968521118164,49.86876678466797,0.0,0.0,-0.0,0.0,0.31304851174354553,0.927487850189209,-0.1847529411315918,4.272799968719482,1.3428800106048584,2.3195199966430664,0.0,538676.0
1.0,-61.08197021484375,-40.81028747558594,88.16519927978516,68.01870727539062,0.0,0.0,-0.0,0.0,0.31304851174354553,0.927487850189209,-0.1847529411315918,4.272799968719482,1.3428800106048584,2.3195199966430664,0.0,538677.0
1.0,-30.810606002807617,-34.78376388549805,65.5884017944336,43.16069030761719,0.0,0.0,-0.0,0.0,0.31304851174354553,0.927487850189209,-0.1847529411315918,4.272799968719482,1.3428800106048584,2.3195199966430664,0.0,538678.0
1.0,11.683213233947754,-10.091777801513672,4.827424049377441,-9.379863739013672,0.0,0.0,-0.0,0.0,0.31304851174354553,0.927487850189209,-0.1847529411315918,4.272799968719482,1.3428800106048584,2.3195199966430664,0.0,538679.0
1.0,43.321250915527344,19.91219139099121,-61.62773132324219,-57.092926025390625,0.0,0.0,-0.0,0.0,0.31304851174354553,0.927487850189209,-0.1847529411315918,4.272799968719482,1.3428800106048584,2.3195199966430664,0.0,538680.0
1.0,50.647186279296875,38.69640350341797,-93.36968994140625,-71.48992919921875,0.0,0.0,-0.0,0.0,0.31304851174354553,0.927487850189209,-0.1847529411315918,4.272799968719482,1.3428800106048584,2.3195199966430664,0.0,538681.0
1.0,32.64546203613281,35.880558013916016,-69.97019958496094,-45.12818145751953,0.0,0.0,-0.0,0.0,0.3070670962333679,0.925290584564209,-0.1896357387304306,1.6480799913406372,1.0834599733352661,-2.6247200965881348,0.0,538682.0
1.0,-0.5892286896705627,13.200154304504395,-5.065423011779785,7.055581092834473,0.0,0.0,-0.0,0.0,0.3070670962333679,0.925290584564209,-0.1896357387304306,1.6480799913406372,1.0834599733352661,-2.6247200965881348,0.0,538683.0
1.0,-31.102447509765625,-16.809547424316406,65.16010284423828,59.19020462036133,0.0,0.0,-0.0,0.0,0.3070670962333679,0.925290584564209,-0.1896357387304306,1.6480799913406372,1.0834599733352661,-2.6247200965881348,0.0,538684.0
1.0,-41.47901916503906,-37.443359375,102.95204162597656,85.15186309814453,0.0,0.0,-0.0,0.0,0.3070670962333679,0.925290584564209,-0.1896357387304306,1.6480799913406372,1.0834599733352661,-2.6247200965881348,0.0,538685.0
1.0,-23.979957580566406,-36.906795501708984,88.341552734375,69.25758361816406,0.0,0.0,-0.0,0.0,0.3070670962333679,0.925290584564209,-0.1896357387304306,1.6480799913406372,1.0834599733352661,-2.6247200965881348,0.0,538686.0
1.0,11.69324779510498,-15.481096267700195,27.7653751373291,17.480621337890625,0.0,0.0,-0.0,0.0,0.3070670962333679,0.925290584564209,-0.1896357387304306,1.6480799913406372,1.0834599733352661,-2.6247200965881348,0.0,538687.0
1.0,40.21224594116211,14.450481414794922,-50.84508514404297,-44.48101806640625,0.0,0.0,-0.0,0.0,0.3070670962333679,0.925290584564209,-0.1896357387304306,1.6480799913406372,1.0834599733352661,-2.6247200965881348,0.0,538688.0
1.0,40.369747161865234,35.792823791503906,-107.8945541381836,-85.2374496459961,0.0,0.0,-0.0,0.0,0.3070670962333679,0.925290584564209,-0.1896357387304306,1.6480799913406372,1.0834599733352661,-2.6247200965881348,0.0,538689.0
1.0,12.172554969787598,36.851715087890625,-111.52122497558594,-84.92603302001953,0.0,0.0,-0.0,0.0,0.3070670962333679,0.925290584564209,-0.1896357387304306,1.6480799913406372,1.0834599733352661,-2.6247200965881348,0.0,538690.0
1.0,-26.257368087768555,17.523487091064453,-58.41777801513672,-45.275203704833984,0.0,0.0,-0.0,0.0,0.3070670962333679,0.925290584564209,-0.1896357387304306,1.6480799913406372,1.0834599733352661,-2.6247200965881348,0.0,538691.0
1.0,-51.74239730834961,-11.78264045715332,25.324371337890625,16.012832641601562,0.0,0.0,-0.0,0.0,0.3084709048271179,0.9186988472938538,-0.1932368129491806,0.6104000210762024,1.7854199409484863,-5.432559967041016,0.0,538692.0
1.0,-48.615135192871094,-35.717777252197266,98.12288665771484,72.72828674316406,0.0,0.0,-0.0,0.0,0.3084709048271179,0.9186988472938538,-0.1932368129491806,0.6104000210762024,1.7854199409484863,-5.432559967041016,0.0,538693.0
1.0,-16.892414093017578,-41.07085037231445,122.4566650390625,95.26666259765625,0.0,0.0,-0.0,0.0,0.3084709048271179,0.9186988472938538,-0.1932368129491806,0.6104000210762024,1.7854199409484863,-5.432559967041016,0.0,538694.0
1.0,27.320531845092773,-23.8494815826416,84.73228454589844,66.42101287841797,0.0,0.0,-0.0,0.0,0.3084709048271179,0.9186988472938538,-0.1932368129491806,0.6104000210762024,1.7854199409484863,-5.432559967041016,0.0,538695.0
1.0,60.033470153808594,7.337408065795898,3.754450798034668,-0.3186045289039612,0.0,0.0,-0.0,0.0,0.3084709048271179,0.9186988472938538,-0.1932368129491806,0.6104000210762024,1.7854199409484863,-5.432559967041016,0.0,538696.0
1.0,62.47801971435547,35.232322692871094,-77.59778594970703,-65.34468841552734,0.0,0.0,-0.0,0.0,0.3084709048271179,0.9186988472938538,-0.1932368129491806,0.6104000210762024,1.7854199409484863,-5.432559967041016,0.0,538697.0
1.0,33.91722869873047,44.15840530395508,-115.5271987915039,-92.34346008300781,0.0,0.0,-0.0,0.0,0.3084709048271179,0.9186988472938538,-0.1932368129491806,0.6104000210762024,1.7854199409484863,-5.432559967041016,0.0,538698.0
1.0,-7.633584976196289,29.51460838317871,-90.54456329345703,-69.59967803955078,0.0,0.0,-0.0,0.0,0.3084709048271179,0.9186988472938538,-0.1932368129491806,0.6104000210762024,1.7854199409484863,-5.432559967041016,0.0,538699.0
1.0,-41.5262451171875,-0.5116775631904602,-18.288843154907227,-9.91754150390625,0.0,0.0,-0.0,0.0,0.3084709048271179,0.9186988472938538,-0.1932368129491806,0.6104000210762024,1.7854199409484863,-5.432559967041016,0.0,538700.0
1.0,-55.69487762451172,-30.25691032409668,59.461204528808594,54.75459289550781,0.0,0.0,-0.0,0.0,0.3084709048271179,0.9186988472938538,-0.1932368129491806,0.6104000210762024,1.7854199409484863,-5.432559967041016,0.0,538701.0
1.0,-47.537254333496094,-44.49063491821289,97.49700927734375,86.53921508789062,0.0,0.0,-0.0,0.0,0.31121745705604553,0.9109473824501038,-0.1893305629491806,3.31141996383667,4.196499824523926,-10.743040084838867,0.0,538702.0
1.0,-24.987323760986328,-35.95641326904297,72.74652862548828,65.40149688720703,0.0,0.0,-0.0,0.0,0.31121745705604553,0.9109473824501038,-0.1893305629491806,3.31141996383667,4.196499824523926,-10.743040084838867,0.0,538703.0
1.0,1.422563076019287,-8.73944091796875,1.757860541343689,4.7293500900268555,0.0,0.0,-0.0,0.0,0.31121745705604553,0.9109473824501038,-0.1893305629491806,3.31141996383667,4.196499824523926,-10.743040084838867,0.0,538704.0
1.0,26.822505950927734,23.781042098999023,-66.5408706665039,-56.74876022338867,0.0,0.0,-0.0,0.0,0.31121745705604553,0.9109473824501038,-0.1893305629491806,3.31141996383667,4.196499824523926,-10.743040084838867,0.0,538705.0
1.0,46.43680953979492,44.85739517211914,-85.59371185302734,-80.89546203613281,0.0,0.0,-0.0,0.0,0.31121745705604553,0.9109473824501038,-0.1893305629491806,3.31141996383667,4.196499824523926,-10.743040084838867,0.0,538706.0
1.0,49.56990051269531,43.0163688659668,-46.366851806640625,-54.5460319519043,0.0,0.0,-0.0,0.0,0.31121745705604553,0.9109473824501038,-0.1893305629491806,3.31141996383667,4.196499824523926,-10.743040084838867,0.0,538707.0
1.0,24.510435104370117,18.66141700744629,18.372299194335938,1.9022328853607178,0.0,0.0,-0.0,0.0,0.31121745705604553,0.9109473824501038,-0.1893305629491806,3.31141996383667,4.196499824523926,-10.743040084838867,0.0,538708.0
1.0,-23.55800437927246,-15.846858024597168,65.87683868408203,51.180938720703125,0.0,0.0,-0.0,0.0,0.31121745705604553,0.9109473824501038,-0.1893305629491806,3.31141996383667,4.196499824523926,-10.743040084838867,0.0,538709.0
1.0,-63.008235931396484,-42.16748809814453,75.03414154052734,68.18820190429688,0.0,0.0,-0.0,0.0,0.31121745705604553,0.9109473824501038,-0.1893305629491806,3.31141996383667,4.196499824523926,-10.743040084838867,0.0,538710.0
1.0,-60.98568344116211,-45.957489013671875,48.06050109863281,50.45587158203125,0.0,0.0,-0.0,0.0,0.31121745705604553,0.9109473824501038,-0.1893305629491806,3.31141996383667,4.196499824523926,-10.743040084838867,0.0,538711.0
1.0,-15.011808395385742,-25.2642765045166,0.21753540635108948,10.421161651611328,0.0,0.0,-0.0,0.0,0.31396403908729553,0.9114966988563538,-0.1842646598815918,1.1902799606323242,2.9146599769592285,-12.360600471496582,0.0,538712.0
1.0,45.31156921386719,8.42991828918457,-46.53955841064453,-31.915918350219727,0.0,0.0,-0.0,0.0,0.31396403908729553,0.9114966988563538,-0.1842646598815918,1.1902799606323242,2.9146599769592285,-12.360600471496582,0.0,538713.0
1.0,78.70357513427734,36.352783203125,-72.00411224365234,-56.09914016723633,0.0,0.0,0.0,0.0,0.31396403908729553,0.9114966988563538,-0.1842646598815918,1.1902799606323242,2.9146599769592285,-12.360600471496582,0.0,538714.0
1.0,62.517234802246094,43.18825912475586,-64.59516906738281,-50.27808380126953,0.0,0.0,0.0,0.0,0.31396403908729553,0.9114966988563538,-0.1842646598815918,1.1902799606323242,2.9146599769592285,-12.360600471496582,0.0,538715.0
1.0,12.357030868530273,26.219663619995117,-22.73185920715332,-15.767304420471191,0.0,0.0,0.0,0.0,0.31396403908729553,0.9114966988563538,-0.1842646598815918,1.1902799606323242,2.9146599769592285,-12.360600471496582,0.0,538716.0
1.0,-36.16592788696289,-4.220829963684082,38.94578552246094,31.731369018554688,0.0,0.0,0.0,0.0,0.31396403908729553,0.9114966988563538,-0.1842646598815918,1.1902799606323242,2.9146599769592285,-12.360600471496582,0.0,538717.0
1.0,-60.73112106323242,-31.513870239257812,84.54666900634766,63.947120666503906,0.0,0.0,0.0,0.0,0.31396403908729553,0.9114966988563538,-0.1842646598815918,1.1902799606323242,2.9146599769592285,-12.360600471496582,0.0,538718.0
1.0,-58.034950256347656,-41.170066833496094,79.03099060058594,56.598758697509766,0.0,0.0,0.0,0.0,0.31396403908729553,0.9114966988563538,-0.1842646598815918,1.1902799606323242,2.9146599769592285,-12.360600471496582,0.0,538719.0
1.0,-31.02454948425293,-27.803367614746094,22.4798583984375,11.144752502441406,0.0,0.0,0.0,0.0,0.31396403908729553,0.9114966988563538,-0.1842646598815918,1.1902799606323242,2.9146599769592285,-12.360600471496582,0.0,538720.0
1.0,10.583578109741211,1.7252568006515503,-49.60919189453125,-45.905120849609375,0.0,0.0,0.0,0.0,0.31396403908729553,0.9114966988563538,-0.1842646598815918,1.1902799606323242,2.9146599769592285,-12.360600471496582,0.0,538721.0
1.0,46.02519607543945,31.175090789794922,-94.48380279541016,-81.9449462890625,0.0,0.0,0.0,0.0,0.31567302346229553,0.9193702340126038,-0.17504838109016418,-1.7243800163269043,-0.8698199987411499,-14.17654037475586,0.0,538722.0
1.0,56.17315673828125,43.98051452636719,-86.53263092041016,-75.88397216796875,0.0,0.0,0.0,0.0,0.31567302346229553,0.9193702340126038,-0.17504838109016418,-1.7243800163269043,-0.8698199987411499,-14.17654037475586,0.0,538723.0
1.0,36.23037338256836,33.2122917175293,-31.282474517822266,-29.255887985229492,0.0,0.0,0.0,0.0,0.31567302346229553,0.9193702340126038,-0.17504838109016418,-1.7243800163269043,-0.8698199987411499,-14.17654037475586,0.0,538724.0
1.0,-4.967756748199463,4.8938164710998535,38.38381576538086,33.495269775390625,0.0,0.0,0.0,0.0,0.31567302346229553,0.9193702340126038,-0.17504838109016418,-1.7243800163269043,-0.8698199987411499,-14.17654037475586,0.0,538725.0
1.0,-47.863460540771484,-26.065807342529297,84.4963607788086,78.40251922607422,0.0,0.0,0.0,0.0,0.31567302346229553,0.9193702340126038,-0.17504838109016418,-1.7243800163269043,-0.8698199987411499,-14.17654037475586,0.0,538726.0
1.0,-68.79842376708984,-43.43748092651367,84.74701690673828,82.10457611083984,0.0,0.0,0.0,0.0,0.31567302346229553,0.9193702340126038,-0.17504838109016418,-1.7243800163269043,-0.8698199987411499,-14.17654037475586,0.0,538727.0
1.0,-52.270042419433594,-37.80867004394531,42.49484634399414,46.01313781738281,0.0,0.0,0.0,0.0,0.31567302346229553,0.9193702340126038,-0.17504838109016418,-1.7243800163269043,-0.8698199987411499,-14.17654037475586,0.0,538728.0
1.0,-0.6174185276031494,-11.785033226013184,-15.39934253692627,-6.2669854164123535,0.0,0.0,0.0,0.0,0.31567302346229553,0.9193702340126038,-0.17504838109016418,-1.7243800163269043,-0.8698199987411499,-14.17654037475586,0.0,538729.0
1.0,60.723594665527344,20.656625747680664,-56.538387298583984,-46.19968795776367,0.0,0.0,0.0,0.0,0.31567302346229553,0.9193702340126038,-0.17504838109016418,-1.7243800163269043,-0.8698199987411499,-14.17654037475586,0.0,538730.0
1.0,91.92449188232422,41.25263214111328,-64.5759048461914,-57.97346496582031,0.0,0.0,0.0,0.0,0.31567302346229553,0.9193702340126038,-0.17504838109016418,-1.7243800163269043,-0.8698199987411499,-14.17654037475586,0.0,538731.0
1.0,66.5942153930664,38.22972869873047,-44.855167388916016,-44.05555725097656,0.0,0.0,0.0,0.0,0.31732097268104553,0.931149959564209,-0.16998247802257538,-2.4416000843048096,-0.5340999960899353,-9.644319534301758,0.0,538732.0
1.0,-2.3599143028259277,13.469243049621582,-10.14382266998291,-15.478257179260254,0.0,0.0,0.0,0.0,0.31732097268104553,0.931149959564209,-0.16998247802257538,-2.4416000843048096,-0.5340999960899353,-9.644319534301758,0.0,538733.0
1.0,-67.3716812133789,-18.817705154418945,30.459117889404297,18.680938720703125,0.0,0.0,0.0,0.0,0.31732097268104553,0.931149959564209,-0.16998247802257538,-2.4416000843048096,-0.5340999960899353,-9.644319534301758,0.0,538734.0
1.0,-84.71296691894531,-40.25461959838867,63.139530181884766,47.36561965942383,0.0,0.0,0.0,0.0,0.31732097268104553,0.931149959564209,-0.16998247802257538,-2.4416000843048096,-0.5340999960899353,-9.644319534301758,0.0,538735.0
1.0,-49.969417572021484,-39.07992935180664,65.87606048583984,53.57941436767578,0.0,0.0,0.0,0.0,0.31732097268104553,0.931149959564209,-0.16998247802257538,-2.4416000843048096,-0.5340999960899353,-9.644319534301758,0.0,538736.0
1.0,4.5829668045043945,-16.796518325805664,25.467775344848633,25.742212295532227,0.0,0.0,0.0,0.0,0.31732097268104553,0.931149959564209,-0.16998247802257538,-2.4416000843048096,-0.5340999960899353,-9.644319534301758,0.0,538737.0
1.0,41.89330291748047,13.786685943603516,-42.81582260131836,-26.445276260375977,0.0,0.0,0.0,0.0,0.31732097268104553,0.931149959564209,-0.16998247802257538,-2.4416000843048096,-0.5340999960899353,-9.644319534301758,0.0,538738.0
1.0,46.99425506591797,36.176143646240234,-96.00890350341797,-70.54277038574219,0.0,0.0,0.0,0.0,0.31732097268104553,0.931149959564209,-0.16998247802257538,-2.4416000843048096,-0.5340999960899353,-9.644319534301758,0.0,538739.0
1.0,27.858644485473633,38.9030876159668,-93.97779846191406,-73.48543548583984,0.0,0.0,0.0,0.0,0.31732097268104553,0.931149959564209,-0.16998247802257538,-2.4416000843048096,-0.5340999960899353,-9.644319534301758,0.0,538740.0
1.0,1.2496331930160522,21.246614456176758,-32.19285202026367,-28.785886764526367,0.0,0.0,0.0,0.0,0.31732097268104553,0.931149959564209,-0.16998247802257538,-2.4416000843048096,-0.5340999960899353,-9.644319534301758,0.0,538741.0
1.0,-16.33955192565918,-7.047926425933838,57.25217819213867,39.94532775878906,0.0,0.0,0.0,0.0,0.31518474221229553,0.939206600189209,-0.16741900146007538,-0.4272800087928772,-2.4416000843048096,-4.959499835968018,0.0,538742.0
1.0,-12.341715812683105,-30.835546493530273,128.6154327392578,96.89332580566406,0.0,0.0,0.0,-0.0,0.31518474221229553,0.939206600189209,-0.16741900146007538,-0.4272800087928772,-2.4416000843048096,-4.959499835968018,0.0,538743.0
1.0,12.3020658493042,-37.230751037597656,144.0011444091797,111.27056121826172,0.0,0.0,0.0,-0.0,0.31518474221229553,0.939206600189209,-0.16741900146007538,-0.4272800087928772,-2.4416000843048096,-4.959499835968018,0.0,538744.0
1.0,34.57329559326172,-22.93791961669922,86.00472259521484,67.07270812988281,0.0,0.0,0.0,-0.0,0.31518474221229553,0.939206600189209,-0.16741900146007538,-0.4272800087928772,-2.4416000843048096,-4.959499835968018,0.0,538745.0
1.0,25.988338470458984,3.7608273029327393,-29.803571701049805,-25.352191925048828,0.0,0.0,0.0,-0.0,0.31518474221229553,0.939206600189209,-0.16741900146007538,-0.4272800087928772,-2.4416000843048096,-4.959499835968018,0.0,538746.0
1.0,-15.102712631225586,27.825178146362305,-148.9708709716797,-121.57097625732422,0.0,0.0,0.0,-0.0,0.31518474221229553,0.939206600189209,-0.16741900146007538,-0.4272800087928772,-2.4416000843048096,-4.959499835968018,0.0,538747.0
1.0,-59.81349563598633,35.903038024902344,-203.8477783203125,-164.2278289794922,0.0,0.0,0.0,-0.0,0.31518474221229553,0.939206600189209,-0.16741900146007538,-0.4272800087928772,-2.4416000843048096,-4.959499835968018,0.0,538748.0
1.0,-77.11865234375,23.712154388427734,-158.51409912109375,-123.12346649169922,0.0,0.0,0.0,-0.0,0.31518474221229553,0.939206600189209,-0.16741900146007538,-0.4272800087928772,-2.4416000843048096,-4.959499835968018,0.0,538749.0
1.0,-57.3530387878418,-1.9738181829452515,-32.75944519042969,-16.354167938232422,0.0,0.0,0.0,-0.0,0.31518474221229553,0.939206600189209,-0.16741900146007538,-0.4272800087928772,-2.4416000843048096,-4.959499835968018,0.0,538750.0
1.0,-13.445474624633789,-27.250478744506836,107.51634216308594,98.76979064941406,0.0,0.0,0.0,-0.0,0.31518474221229553,0.939206600189209,-0.16741900146007538,-0.4272800087928772,-2.4416000843048096,-4.959499835968018,0.0,538751.0
1.0,34.259803771972656,-38.272003173828125,189.27847290039062,160.39691162109375,0.0,0.0,0.0,-0.0,0.31024089455604553,0.942380428314209,-0.16491657495498657,1.953279972076416,-2.3805599212646484,0.9003400206565857,0.0,538752.0
1.0,72.18154907226562,-28.45917510986328,178.04161071777344,142.15264892578125,0.0,0.0,0.0,-0.0,0.31024089455604553,0.942380428314209,-0.16491657495498657,1.953279972076416,-2.3805599212646484,0.9003400206565857,0.0,538753.0
1.0,92.53042602539062,-2.041170120239258,92.03911590576172,64.97857666015625,0.0,0.0,0.0,-0.0,0.31024089455604553,0.942380428314209,-0.16491657495498657,1.953279972076416,-2.3805599212646484,0.9003400206565857,0.0,538754.0
1.0,85.73098754882812,27.55752944946289,-18.474058151245117,-24.340871810913086,0.0,0.0,0.0,-0.0,0.31024089455604553,0.942380428314209,-0.16491657495498657,1.953279972076416,-2.3805599212646484,0.9003400206565857,0.0,538755.0
1.0,44.888736724853516,43.944862365722656,-100.85655212402344,-85.10862731933594,0.0,0.0,0.0,-0.0,0.31024089455604553,0.942380428314209,-0.16491657495498657,1.953279972076416,-2.3805599212646484,0.9003400206565857,0.0,538756.0
1.0,-20.55353546142578,37.07120895385742,-123.9857406616211,-100.1170654296875,0.0,0.0,0.0,-0.0,0.31024089455604553,0.942380428314209,-0.16491657495498657,1.953279972076416,-2.3805599212646484,0.9003400206565857,0.0,538757.0
1.0,-83.65420532226562,9.688339233398438,-88.69779205322266,-72.21173858642578,0.0,0.0,0.0,-0.0,0.31024089455604553,0.942380428314209,-0.16491657495498657,1.953279972076416,-2.3805599212646484,0.9003400206565857,0.0,538758.0
1.0,-115.13883972167969,-24.1126766204834,-22.62022590637207,-19.394487380981445,0.0,0.0,0.0,-0.0,0.31024089455604553,0.942380428314209,-0.16491657495498657,1.953279972076416,-2.3805599212646484,0.9003400206565857,0.0,538759.0
1.0,-100.40998077392578,-46.395904541015625,34.34580612182617,28.022350311279297,0.0,0.0,0.0,-0.0,0.31024089455604553,0.942380428314209,-0.16491657495498657,1.953279972076416,-2.3805599212646484,0.9003400206565857,0.0,538760.0
1.0,-46.86030197143555,-44.93407440185547,52.06013107299805,44.15022277832031,0.0,0.0,0.0,-0.0,0.31024089455604553,0.942380428314209,-0.16491657495498657,1.953279972076416,-2.3805599212646484,0.9003400206565857,0.0,538761.0
1.0,21.857845306396484,-20.051668167114258,28.67592430114746,25.8343563079834,0.0,0.0,0.0,-0.0,0.3049308657646179,0.940610408782959,-0.16369587182998657,2.1211400032043457,-2.80784010887146,2.4110798835754395,0.0,538762.0
1.0,78.41719818115234,15.50174617767334,-10.846705436706543,-7.653026580810547,0.0,0.0,0.0,-0.0,0.3049308657646179,0.940610408782959,-0.16369587182998657,2.1211400032043457,-2.80784010887146,2.4110798835754395,0.0,538763.0
1.0,103.67778015136719,43.364749908447266,-32.82517623901367,-28.79831886291504,0.0,0.0,0.0,-0.0,0.3049308657646179,0.940610408782959,-0.16369587182998657,2.1211400032043457,-2.80784010887146,2.4110798835754395,0.0,538764.0
1.0,91.91777038574219,49.55454635620117,-18.200519561767578,-20.519824981689453,0.0,0.0,0.0,-0.0,0.3049308657646179,0.940610408782959,-0.16369587182998657,2.1211400032043457,-2.80784010887146,2.4110798835754395,0.0,538765.0
1.0,47.86775207519531,31.429805755615234,23.525650024414062,11.85244083404541,0.0,0.0,0.0,-0.0,0.3049308657646179,0.940610408782959,-0.16369587182998657,2.1211400032043457,-2.80784010887146,2.4110798835754395,0.0,538766.0
1.0,-14.267087936401367,-2.0421245098114014,62.8944091796875,46.72439956665039,0.0,0.0,0.0,-0.0,0.3049308657646179,0.940610408782959,-0.16369587182998657,2.1211400032043457,-2.80784010887146,2.4110798835754395,0.0,538767.0
1.0,-70.43345642089844,-34.39643478393555,69.66181182861328,60.7271728515625,0.0,0.0,0.0,-0.0,0.3049308657646179,0.940610408782959,-0.16369587182998657,2.1211400032043457,-2.80784010887146,2.4110798835754395,0.0,538768.0
1.0,-96.18148803710938,-49.048377990722656,30.618032455444336,39.74276351928711,0.0,0.0,0.0,-0.0,0.3049308657646179,0.940610408782959,-0.16369587182998657,2.1211400032043457,-2.80784010887146,2.4110798835754395,0.0,538769.0
1.0,-79.65718841552734,-38.277122497558594,-37.4390754699707,-11.367820739746094,0.0,0.0,0.0,-0.0,0.3049308657646179,0.940610408782959,-0.16369587182998657,2.1211400032043457,-2.80784010887146,2.4110798835754395,0.0,538770.0
1.0,-29.291948318481445,-7.998969078063965,-95.52307891845703,-66.45770263671875,0.0,0.0,0.0,-0.0,0.3049308657646179,0.940610408782959,-0.16369587182998657,2.1211400032043457,-2.80784010887146,2.4110798835754395,0.0,538771.0
1.0,28.962553024291992,25.206892013549805,-108.03269958496094,-91.60274505615234,0.0,0.0,0.0,-0.0,0.3023063540458679,0.935727596282959,-0.16241413354873657,7.187459945678711,-4.2117600440979,5.844580173492432,0.0,538772.0
1.0,67.4315185546875,43.42724609375,-64.37085723876953,-67.89354705810547,0.0,0.0,0.0,-0.0,0.3023063540458679,0.935727596282959,-0.16241413354873657,7.187459945678711,-4.2117600440979,5.844580173492432,0.0,538773.0
1.0,70.0523681640625,37.52796936035156,13.476330757141113,-6.839626312255859,0.0,0.0,0.0,-0.0,0.3023063540458679,0.935727596282959,-0.16241413354873657,7.187459945678711,-4.2117600440979,5.844580173492432,0.0,538774.0
1.0,36.03211975097656,11.536352157592773,83.8592529296875,56.78773498535156,0.0,0.0,0.0,-0.0,0.3023063540458679,0.935727596282959,-0.16241413354873657,7.187459945678711,-4.2117600440979,5.844580173492432,0.0,538775.0
1.0,-16.422592163085938,-20.09025764465332,112.2042236328125,89.13422393798828,0.0,0.0,0.0,-0.0,0.3023063540458679,0.935727596282959,-0.16241413354873657,7.187459945678711,-4.2117600440979,5.844580173492432,0.0,538776.0
1.0,-54.73834228515625,-40.00164794921875,88.8155746459961,76.78005981445312,0.0,0.0,0.0,-0.0,0.3023063540458679,0.935727596282959,-0.16241413354873657,7.187459945678711,-4.2117600440979,5.844580173492432,0.0,538777.0
1.0,-53.50392150878906,-37.30012512207031,29.057161331176758,30.4378604888916,0.0,0.0,0.0,-0.0,0.3023063540458679,0.935727596282959,-0.16241413354873657,7.187459945678711,-4.2117600440979,5.844580173492432,0.0,538778.0
1.0,-13.151965141296387,-13.596306800842285,-37.06419372558594,-24.284799575805664,0.0,0.0,0.0,-0.0,0.3023063540458679,0.935727596282959,-0.16241413354873657,7.187459945678711,-4.2117600440979,5.844580173492432,0.0,538779.0
1.0,39.49870300292969,17.757747650146484,-80.07571411132812,-61.2932243347168,0.0,0.0,0.0,-0.0,0.3023063540458679,0.935727596282959,-0.16241413354873657,7.187459945678711,-4.2117600440979,5.844580173492432,0.0,538780.0
1.0,67.44114685058594,38.8023567199707,-84.85388946533203,-66.7340087890625,0.0,0.0,0.0,-0.0,0.3023063540458679,0.935727596282959,-0.16241413354873657,7.187459945678711,-4.2117600440979,5.844580173492432,0.0,538781.0
1.0,50.77516174316406,37.56142044067383,-53.41347885131836,-42.78969192504883,0.0,0.0,0.0,-0.0,0.3034049868583679,0.929868221282959,-0.16674761474132538,9.598540306091309,-4.516960144042969,6.7296600341796875,0.0,538782.0
1.0,1.8768113851547241,15.120402336120605,0.7844477891921997,-1.0798417329788208,0.0,0.0,0.0,-0.0,0.3034049868583679,0.929868221282959,-0.16674761474132538,9.598540306091309,-4.516960144042969,6.7296600341796875,0.0,538783.0
1.0,-48.35134506225586,-15.778759956359863,54.13759994506836,41.064605712890625,0.0,0.0,0.0,-0.0,0.3034049868583679,0.929868221282959,-0.16674761474132538,9.598540306091309,-4.516960144042969,6.7296600341796875,0.0,538784.0
1.0,-73.37538146972656,-37.98398208618164,77.4601058959961,61.43553924560547,0.0,0.0,0.0,-0.0,0.3034049868583679,0.929868221282959,-0.16674761474132538,9.598540306091309,-4.516960144042969,6.7296600341796875,0.0,538785.0
1.0,-62.38100051879883,-39.081451416015625,55.13114547729492,45.811912536621094,0.0,0.0,0.0,-0.0,0.3034049868583679,0.929868221282959,-0.16674761474132538,9.598540306091309,-4.516960144042969,6.7296600341796875,0.0,538786.0
1.0,-21.08833122253418,-18.20440673828125,-0.07207000255584717,2.1229615211486816,0.0,0.0,0.0,-0.0,0.3034049868583679,0.929868221282959,-0.16674761474132538,9.598540306091309,-4.516960144042969,6.7296600341796875,0.0,538787.0
1.0,31.963603973388672,13.581170082092285,-54.3415641784668,-43.22507095336914,0.0,0.0,0.0,-0.0,0.3034049868583679,0.929868221282959,-0.16674761474132538,9.598540306091309,-4.516960144042969,6.7296600341796875,0.0,538788.0
1.0,71.16814422607422,38.8079833984375,-74.58341217041016,-62.34324264526367,0.0,0.0,0.0,-0.0,0.3034049868583679,0.929868221282959,-0.16674761474132538,9.598540306091309,-4.516960144042969,6.7296600341796875,0.0,538789.0
1.0,74.08393859863281,42.987396240234375,-50.348201751708984,-43.940574645996094,0.0,0.0,0.0,-0.0,0.3034049868583679,0.929868221282959,-0.16674761474132538,9.598540306091309,-4.516960144042969,6.7296600341796875,0.0,538790.0
1.0,36.2473030090332,23.37272071838379,1.117199182510376,0.12374858558177948,0.0,0.0,0.0,-0.0,0.3034049868583679,0.929868221282959,-0.16674761474132538,9.598540306091309,-4.516960144042969,6.7296600341796875,0.0,538791.0
1.0,-22.158851623535156,-9.560248374938965,50.33549880981445,44.53691101074219,0.0,0.0,0.0,-0.0,0.3041374087333679,0.927915096282959,-0.17358353734016418,4.8374199867248535,-6.882259845733643,3.937079906463623,0.0,538792.0
1.0,-68.49745178222656,-38.25939178466797,72.00566101074219,65.19025421142578,0.0,0.0,0.0,-0.0,0.3041374087333679,0.927915096282959,-0.17358353734016418,4.8374199867248535,-6.882259845733643,3.937079906463623,0.0,538793.0
1.0,-77.94650268554688,-47.30856704711914,54.90644073486328,50.876129150390625,0.0,0.0,0.0,-0.0,0.3041374087333679,0.927915096282959,-0.17358353734016418,4.8374199867248535,-6.882259845733643,3.937079906463623,0.0,538794.0
1.0,-46.17587661743164,-31.54763412475586,7.039111614227295,7.9049201011657715,0.0,0.0,0.0,-0.0,0.3041374087333679,0.927915096282959,-0.17358353734016418,4.8374199867248535,-6.882259845733643,3.937079906463623,0.0,538795.0
1.0,9.819960594177246,0.9630440473556519,-47.57687759399414,-43.3401985168457,0.0,0.0,-0.0,-0.0,0.3041374087333679,0.927915096282959,-0.17358353734016418,4.8374199867248535,-6.882259845733643,3.937079906463623,0.0,538796.0
1.0,60.97901153564453,32.97959518432617,-78.25455474853516,-74.83537292480469,0.0,0.0,-0.0,-0.0,0.3041374087333679,0.927915096282959,-0.17358353734016418,4.8374199867248535,-6.882259845733643,3.937079906463623,0.0,538797.0
1.0,81.31863403320312,47.509429931640625,-63.86617660522461,-64.89192962646484,0.0,0.0,-0.0,-0.0,0.3041374087333679,0.927915096282959,-0.17358353734016418,4.8374199867248535,-6.882259845733643,3.937079906463623,0.0,538798.0
1.0,60.996185302734375,37.421348571777344,-10.186386108398438,-16.42365074157715,0.0,0.0,-0.0,-0.0,0.3041374087333679,0.927915096282959,-0.17358353734016418,4.8374199867248535,-6.882259845733643,3.937079906463623,0.0,538799.0
1.0,10.050386428833008,8.710824012756348,51.61851119995117,42.646278381347656,0.0,0.0,-0.0,-0.0,0.3041374087333679,0.927915096282959,-0.17358353734016418,4.8374199867248535,-6.882259845733643,3.937079906463623,0.0,538800.0
1.0,-45.51962661743164,-23.35032844543457,86.52030181884766,79.55541229248047,0.0,0.0,-0.0,-0.0,0.3041374087333679,0.927915096282959,-0.17358353734016418,4.8374199867248535,-6.882259845733643,3.937079906463623,0.0,538801.0
1.0,-74.55420684814453,-41.88542938232422,76.58594512939453,75.78462982177734,0.0,0.0,-0.0,-0.0,0.3057853579521179,0.931821346282959,-0.179992213845253,-5.508860111236572,-10.422579765319824,3.402980089187622,0.0,538802.0
1.0,-59.35994338989258,-37.122283935546875,28.270709991455078,33.721248626708984,0.0,0.0,-0.0,-0.0,0.3057853579521179,0.931821346282959,-0.179992213845253,-5.508860111236572,-10.422579765319824,3.402980089187622,0.0,538803.0
1.0,-10.796821594238281,-11.646574020385742,-34.87455749511719,-26.29079246520996,0.0,0.0,-0.0,-0.0,0.3057853579521179,0.931821346282959,-0.179992213845253,-5.508860111236572,-10.422579765319824,3.402980089187622,0.0,538804.0
1.0,36.97232437133789,20.735679626464844,-85.0567626953125,-75.58850860595703,0.0,0.0,-0.0,-0.0,0.3057853579521179,0.931821346282959,-0.179992213845253,-5.508860111236572,-10.422579765319824,3.402980089187622,0.0,538805.0
1.0,52.66259002685547,41.72209930419922,-99.49430847167969,-90.50666046142578,0.0,0.0,-0.0,-0.0,0.3057853579521179,0.931821346282959,-0.179992213845253,-5.508860111236572,-10.422579765319824,3.402980089187622,0.0,538806.0
1.0,31.938426971435547,38.97591018676758,-68.42259979248047,-63.11196517944336,0.0,0.0,-0.0,-0.0,0.3057853579521179,0.931821346282959,-0.179992213845253,-5.508860111236572,-10.422579765319824,3.402980089187622,0.0,538807.0
1.0,-3.645988941192627,13.875007629394531,-1.5382441282272339,-4.100421905517578,0.0,0.0,-0.0,-0.0,0.3057853579521179,0.931821346282959,-0.179992213845253,-5.508860111236572,-10.422579765319824,3.402980089187622,0.0,538808.0
1.0,-30.106264114379883,-19.865636825561523,71.4455337524414,60.7589111328125,0.0,0.0,-0.0,-0.0,0.3057853579521179,0.931821346282959,-0.179992213845253,-5.508860111236572,-10.422579765319824,3.402980089187622,0.0,538809.0
1.0,-38.17333984375,-44.18803024291992,111.25801086425781,99.03179931640625,0.0,0.0,-0.0,-0.0,0.3057853579521179,0.931821346282959,-0.179992213845253,-5.508860111236572,-10.422579765319824,3.402980089187622,0.0,538810.0
1.0,-27.8448429107666,-45.9755744934082,93.34609985351562,86.96122741699219,0.0,0.0,-0.0,-0.0,0.3057853579521179,0.931821346282959,-0.179992213845253,-5.508860111236572,-10.422579765319824,3.402980089187622,0.0,538811.0
1.0,-2.0866787433624268,-23.88146209716797,26.71532440185547,26.923925399780273,0.0,0.0,-0.0,-0.0,0.3028556704521179,0.930722713470459,-0.180785670876503,-5.905620098114014,-23.363059997558594,5.691979885101318,0.0,538812.0
1.0,28.167898178100586,10.67755126953125,-52.02744674682617,-48.46727752685547,0.0,0.0,-0.0,-0.0,0.3028556704521179,0.930722713470459,-0.180785670876503,-5.905620098114014,-23.363059997558594,5.691979885101318,0.0,538813.0
1.0,45.70804214477539,39.25174331665039,-100.43077850341797,-94.7508316040039,0.0,0.0,-0.0,-0.0,0.3028556704521179,0.930722713470459,-0.180785670876503,-5.905620098114014,-23.363059997558594,5.691979885101318,0.0,538814.0
1.0,39.55392074584961,46.723907470703125,-93.1510009765625,-85.70736694335938,0.0,0.0,-0.0,-0.0,0.3028556704521179,0.930722713470459,-0.180785670876503,-5.905620098114014,-23.363059997558594,5.691979885101318,0.0,538815.0
1.0,12.890326499938965,29.888835906982422,-35.03266906738281,-30.26128578186035,0.0,0.0,-0.0,-0.0,0.3028556704521179,0.930722713470459,-0.180785670876503,-5.905620098114014,-23.363059997558594,5.691979885101318,0.0,538816.0
1.0,-18.95100975036621,-1.7105330228805542,43.60306167602539,38.2446174621582,0.0,0.0,-0.0,-0.0,0.3028556704521179,0.930722713470459,-0.180785670876503,-5.905620098114014,-23.363059997558594,5.691979885101318,0.0,538817.0
1.0,-38.64566421508789,-31.301244735717773,100.130126953125,83.80225372314453,0.0,0.0,-0.0,-0.0,0.3028556704521179,0.930722713470459,-0.180785670876503,-5.905620098114014,-23.363059997558594,5.691979885101318,0.0,538818.0
1.0,-39.73804473876953,-43.33781814575195,97.2445068359375,82.61481475830078,0.0,0.0,-0.0,-0.0,0.3028556704521179,0.930722713470459,-0.180785670876503,-5.905620098114014,-23.363059997558594,5.691979885101318,0.0,538819.0
1.0,-25.71108627319336,-31.606773376464844,30.601491928100586,34.783931732177734,0.0,0.0,-0.0,-0.0,0.3028556704521179,0.930722713470459,-0.180785670876503,-5.905620098114014,-23.363059997558594,5.691979885101318,0.0,538820.0
1.0,-0.009702528826892376,-2.431757926940918,-57.59279251098633,-32.13148498535156,0.0,0.0,-0.0,-0.0,0.3028556704521179,0.930722713470459,-0.180785670876503,-5.905620098114014,-23.363059997558594,5.691979885101318,0.0,538821.0
1.0,29.55352020263672,28.325626373291016,-108.37649536132812,-79.9972152709961,0.0,0.0,-0.0,-0.0,0.3073112368583679,0.9183936715126038,-0.16656450927257538,-0.6409199833869934,-10.72778034210205,2.5026400089263916,0.0,538822.0
1.0,44.35026168823242,43.46965408325195,-94.0229263305664,-84.35841369628906,0.0,0.0,-0.0,0.0,0.3073112368583679,0.9183936715126038,-0.16656450927257538,-0.6409199833869934,-10.72778034210205,2.5026400089263916,0.0,538823.0
1.0,30.567752838134766,34.5345573425293,-31.08765983581543,-44.331573486328125,0.0,0.0,-0.0,0.0,0.3073112368583679,0.9183936715126038,-0.16656450927257538,-0.6409199833869934,-10.72778034210205,2.5026400089263916,0.0,538824.0
1.0,-3.3036534786224365,6.555506706237793,44.2332649230957,20.927810668945312,0.0,0.0,-0.0,0.0,0.3073112368583679,0.9183936715126038,-0.16656450927257538,-0.6409199833869934,-10.72778034210205,2.5026400089263916,0.0,538825.0
1.0,-33.10988235473633,-25.21055030822754,98.22148895263672,78.93833923339844,0.0,0.0,-0.0,0.0,0.3073112368583679,0.9183936715126038,-0.16656450927257538,-0.6409199833869934,-10.72778034210205,2.5026400089263916,0.0,538826.0
1.0,-38.69921112060547,-43.44072723388672,106.7071762084961,96.33909606933594,0.0,0.0,-0.0,0.0,0.3073112368583679,0.9183936715126038,-0.16656450927257538,-0.6409199833869934,-10.72778034210205,2.5026400089263916,0.0,538827.0
1.0,-18.77635955810547,-38.164512634277344,62.23258590698242,60.30477523803711,0.0,0.0,-0.0,0.0,0.3073112368583679,0.9183936715126038,-0.16656450927257538,-0.6409199833869934,-10.72778034210205,2.5026400089263916,0.0,538828.0
1.0,10.423101425170898,-12.305980682373047,-17.10177993774414,-9.047061920166016,0.0,0.0,-0.0,0.0,0.3073112368583679,0.9183936715126038,-0.16656450927257538,-0.6409199833869934,-10.72778034210205,2.5026400089263916,0.0,538829.0
1.0,31.191099166870117,20.074783325195312,-90.20989990234375,-72.14546203613281,0.0,0.0,-0.0,0.0,0.3073112368583679,0.9183936715126038,-0.16656450927257538,-0.6409199833869934,-10.72778034210205,2.5026400089263916,0.0,538830.0
1.0,34.91695022583008,41.36677551269531,-114.9422836303711,-95.44537353515625,0.0,0.0,-0.0,0.0,0.3073112368583679,0.9183936715126038,-0.16656450927257538,-0.6409199833869934,-10.72778034210205,2.5026400089263916,0.0,538831.0
1.0,22.822969436645508,40.30388259887695,-75.76028442382812,-67.43431091308594,0.0,0.0,-0.0,0.0,0.32134926319122314,0.9152808785438538,-0.17523148655891418,14.390179634094238,1.464959979057312,6.058219909667969,0.0,538832.0
1.0,3.3372669219970703,18.06996726989746,6.6989426612854,-2.3019981384277344,0.0,0.0,-0.0,0.0,0.32134926319122314,0.9152808785438538,-0.17523148655891418,14.390179634094238,1.464959979057312,6.058219909667969,0.0,538833.0
1.0,-16.37209129333496,-13.242602348327637,86.1753158569336,64.29288482666016,0.0,0.0,-0.0,0.0,0.32134926319122314,0.9152808785438538,-0.17523148655891418,14.390179634094238,1.464959979057312,6.058219909667969,0.0,538834.0
1.0,-34.518611907958984,-37.00300216674805,113.76421356201172,91.87474822998047,0.0,0.0,-0.0,0.0,0.32134926319122314,0.9152808785438538,-0.17523148655891418,14.390179634094238,1.464959979057312,6.058219909667969,0.0,538835.0
1.0,-45.1630973815918,-40.25941848754883,70.73863983154297,62.66877746582031,0.0,0.0,-0.0,0.0,0.32134926319122314,0.9152808785438538,-0.17523148655891418,14.390179634094238,1.464959979057312,6.058219909667969,0.0,538836.0
1.0,-35.27570724487305,-21.066877365112305,-14.845767974853516,-4.352874755859375,0.0,0.0,-0.0,0.0,0.32134926319122314,0.9152808785438538,-0.17523148655891418,14.390179634094238,1.464959979057312,6.058219909667969,0.0,538837.0
1.0,-1.7281779050827026,9.846888542175293,-89.55823516845703,-67.70172119140625,0.0,0.0,-0.0,0.0,0.32134926319122314,0.9152808785438538,-0.17523148655891418,14.390179634094238,1.464959979057312,6.058219909667969,0.0,538838.0
1.0,37.44446563720703,34.9631233215332,-110.82013702392578,-90.4542465209961,0.0,0.0,-0.0,0.0,0.32134926319122314,0.9152808785438538,-0.17523148655891418,14.390179634094238,1.464959979057312,6.058219909667969,0.0,538839.0
1.0,58.18329620361328,40.400394439697266,-68.3718490600586,-60.03916931152344,0.0,0.0,-0.0,0.0,0.32134926319122314,0.9152808785438538,-0.17523148655891418,14.390179634094238,1.464959979057312,6.058219909667969,0.0,538840.0
1.0,50.74391555786133,23.7783145904541,14.653885841369629,7.817205905914307,0.0,0.0,-0.0,0.0,0.32134926319122314,0.9152808785438538,-0.17523148655891418,14.390179634094238,1.464959979057312,6.058219909667969,0.0,538841.0
1.0,18.896015167236328,-5.909788131713867,92.09249114990234,76.03025817871094,0.0,0.0,-0.0,0.0,0.31616130471229553,0.927426815032959,-0.177611842751503,6.561800003051758,0.8240399956703186,6.424459934234619,0.0,538842.0
1.0,-27.398670196533203,-33.57834243774414,116.05287170410156,102.46302795410156,0.0,0.0,-0.0,0.0,0.31616130471229553,0.927426815032959,-0.177611842751503,6.561800003051758,0.8240399956703186,6.424459934234619,0.0,538843.0
1.0,-66.17460632324219,-44.549774169921875,70.8869857788086,68.5190658569336,0.0,0.0,-0.0,0.0,0.31616130471229553,0.927426815032959,-0.177611842751503,6.561800003051758,0.8240399956703186,6.424459934234619,0.0,538844.0
1.0,-69.255615234375,-31.961349487304688,-13.613609313964844,-5.155447006225586,0.0,0.0,-0.0,0.0,0.31616130471229553,0.927426815032959,-0.177611842751503,6.561800003051758,0.8240399956703186,6.424459934234619,0.0,538845.0
1.0,-29.24671745300293,-1.6825181245803833,-87.7522964477539,-75.57330322265625,0.0,0.0,-0.0,0.0,0.31616130471229553,0.927426815032959,-0.177611842751503,6.561800003051758,0.8240399956703186,6.424459934234619,0.0,538846.0
1.0,29.611480712890625,29.998559951782227,-112.5471420288086,-105.13600158691406,0.0,0.0,-0.0,0.0,0.31616130471229553,0.927426815032959,-0.177611842751503,6.561800003051758,0.8240399956703186,6.424459934234619,0.0,538847.0
1.0,69.02984619140625,45.44660186767578,-78.50376892089844,-80.67007446289062,0.0,0.0,-0.0,0.0,0.31616130471229553,0.927426815032959,-0.177611842751503,6.561800003051758,0.8240399956703186,6.424459934234619,0.0,538848.0
1.0,63.0230827331543,36.0670280456543,-9.224019050598145,-18.042842864990234,0.0,0.0,-0.0,0.0,0.31616130471229553,0.927426815032959,-0.177611842751503,6.561800003051758,0.8240399956703186,6.424459934234619,0.0,538849.0
1.0,17.11713218688965,7.185044288635254,58.8101921081543,50.1036491394043,0.0,0.0,-0.0,0.0,0.31616130471229553,0.927426815032959,-0.177611842751503,6.561800003051758,0.8240399956703186,6.424459934234619,0.0,538850.0
1.0,-34.78791427612305,-25.186935424804688,98.19817352294922,92.42919158935547,0.0,0.0,-0.0,0.0,0.31616130471229553,0.927426815032959,-0.177611842751503,6.561800003051758,0.8240399956703186,6.424459934234619,0.0,538851.0
1.0,-56.943397521972656,-43.2203254699707,95.5926513671875,91.79793548583984,0.0,0.0,-0.0,0.0,0.31347575783729553,0.930661678314209,-0.178466334939003,0.2289000004529953,-0.5951399803161621,4.272799968719482,0.0,538852.0
1.0,-37.85512161254883,-37.24065017700195,52.40170669555664,50.348541259765625,0.0,0.0,-0.0,0.0,0.31347575783729553,0.930661678314209,-0.178466334939003,0.2289000004529953,-0.5951399803161621,4.272799968719482,0.0,538853.0
1.0,5.333836078643799,-10.878087043762207,-14.257444381713867,-13.547215461730957,0.0,0.0,-0.0,0.0,0.31347575783729553,0.930661678314209,-0.178466334939003,0.2289000004529953,-0.5951399803161621,4.272799968719482,0.0,538854.0
1.0,41.330909729003906,21.3541316986084,-77.38299560546875,-72.7327651977539,0.0,0.0,-0.0,0.0,0.31347575783729553,0.930661678314209,-0.178466334939003,0.2289000004529953,-0.5951399803161621,4.272799968719482,0.0,538855.0
1.0,45.390201568603516,41.900856018066406,-110.00700378417969,-100.45450592041016,0.0,0.0,-0.0,0.0,0.31347575783729553,0.930661678314209,-0.178466334939003,0.2289000004529953,-0.5951399803161621,4.272799968719482,0.0,538856.0
1.0,16.23295021057129,39.82691955566406,-94.33863830566406,-81.36021423339844,0.0,0.0,-0.0,0.0,0.31347575783729553,0.930661678314209,-0.178466334939003,0.2289000004529953,-0.5951399803161621,4.272799968719482,0.0,538857.0
1.0,-23.56238555908203,16.660137176513672,-31.49079132080078,-21.155715942382812,0.0,0.0,-0.0,0.0,0.31347575783729553,0.930661678314209,-0.178466334939003,0.2289000004529953,-0.5951399803161621,4.272799968719482,0.0,538858.0
1.0,-46.52513885498047,-15.146859169006348,51.74343490600586,51.594547271728516,0.0,0.0,-0.0,0.0,0.31347575783729553,0.930661678314209,-0.178466334939003,0.2289000004529953,-0.5951399803161621,4.272799968719482,0.0,538859.0
1.0,-40.437068939208984,-38.81526565551758,111.7099838256836,98.01634979248047,0.0,0.0,-0.0,0.0,0.31347575783729553,0.930661678314209,-0.178466334939003,0.2289000004529953,-0.5951399803161621,4.272799968719482,0.0,538860.0
1.0,-12.152719497680664,-41.88229751586914,114.01905059814453,92.7903060913086,0.0,0.0,-0.0,0.0,0.31347575783729553,0.930661678314209,-0.178466334939003,0.2289000004529953,-0.5951399803161621,4.272799968719482,0.0,538861.0
1.0,21.960432052612305,-22.997718811035156,56.40988540649414,40.45661926269531,0.0,0.0,-0.0,0.0,0.31329265236854553,0.931027889251709,-0.177855983376503,-4.7763800621032715,-1.6328200101852417,1.2970999479293823,0.0,538862.0
1.0,45.73870086669922,7.554170608520508,-28.9827880859375,-28.98088836669922,0.0,0.0,-0.0,0.0,0.31329265236854553,0.931027889251709,-0.177855983376503,-4.7763800621032715,-1.6328200101852417,1.2970999479293823,0.0,538863.0
1.0,48.10919189453125,33.429176330566406,-93.07061004638672,-77.1450424194336,0.0,0.0,-0.0,0.0,0.31329265236854553,0.931027889251709,-0.177855983376503,-4.7763800621032715,-1.6328200101852417,1.2970999479293823,0.0,538864.0
1.0,26.91474723815918,41.02489471435547,-100.41254425048828,-78.88124084472656,0.0,0.0,-0.0,0.0,0.31329265236854553,0.931027889251709,-0.177855983376503,-4.7763800621032715,-1.6328200101852417,1.2970999479293823,0.0,538865.0
1.0,-8.267687797546387,26.819942474365234,-51.74586868286133,-37.232086181640625,0.0,0.0,-0.0,0.0,0.31329265236854553,0.931027889251709,-0.177855983376503,-4.7763800621032715,-1.6328200101852417,1.2970999479293823,0.0,538866.0
1.0,-38.999847412109375,-1.3278405666351318,21.972192764282227,22.22852325439453,0.0,0.0,-0.0,0.0,0.31329265236854553,0.931027889251709,-0.177855983376503,-4.7763800621032715,-1.6328200101852417,1.2970999479293823,0.0,538867.0
1.0,-48.19719314575195,-28.329587936401367,80.19225311279297,67.5223388671875,0.0,0.0,-0.0,0.0,0.31329265236854553,0.931027889251709,-0.177855983376503,-4.7763800621032715,-1.6328200101852417,1.2970999479293823,0.0,538868.0
1.0,-33.10835647583008,-39.45088195800781,90.23067474365234,73.32683563232422,0.0,0.0,-0.0,0.0,0.31329265236854553,0.931027889251709,-0.177855983376503,-4.7763800621032715,-1.6328200101852417,1.2970999479293823,0.0,538869.0
1.0,-5.415674209594727,-28.577356338500977,44.53069305419922,33.719295501708984,0.0,0.0,-0.0,0.0,0.31329265236854553,0.931027889251709,-0.177855983376503,-4.7763800621032715,-1.6328200101852417,1.2970999479293823,0.0,538870.0
1.0,22.17032814025879,-1.8186101913452148,-29.820722579956055,-30.20150375366211,0.0,0.0,-0.0,0.0,0.31329265236854553,0.931027889251709,-0.177855983376503,-4.7763800621032715,-1.6328200101852417,1.2970999479293823,0.0,538871.0
1.0,39.27903366088867,25.653236389160156,-87.81547546386719,-80.966552734375,0.0,0.0,-0.0,0.0,0.3073722720146179,0.927060604095459,-0.17279008030891418,-4.242280006408691,0.4425399899482727,0.2594200074672699,0.0,538872.0
1.0,36.07890319824219,38.126609802246094,-96.89439392089844,-88.3084716796875,0.0,0.0,-0.0,0.0,0.3073722720146179,0.927060604095459,-0.17279008030891418,-4.242280006408691,0.4425399899482727,0.2594200074672699,0.0,538873.0
1.0,11.448899269104004,28.780366897583008,-53.496402740478516,-46.257266998291016,0.0,0.0,-0.0,0.0,0.3073722720146179,0.927060604095459,-0.17279008030891418,-4.242280006408691,0.4425399899482727,0.2594200074672699,0.0,538874.0
1.0,-22.64630889892578,3.0453882217407227,18.443546295166016,23.99969482421875,0.0,0.0,-0.0,0.0,0.3073722720146179,0.927060604095459,-0.17279008030891418,-4.242280006408691,0.4425399899482727,0.2594200074672699,0.0,538875.0
1.0,-46.63774490356445,-25.008438110351562,81.32100677490234,84.31616973876953,0.0,0.0,0.0,0.0,0.3073722720146179,0.927060604095459,-0.17279008030891418,-4.242280006408691,0.4425399899482727,0.2594200074672699,0.0,538876.0
1.0,-43.52031707763672,-39.69389724731445,103.42799377441406,100.747314453125,0.0,0.0,0.0,0.0,0.3073722720146179,0.927060604095459,-0.17279008030891418,-4.242280006408691,0.4425399899482727,0.2594200074672699,0.0,538877.0
1.0,-10.934921264648438,-32.10061264038086,74.39108276367188,64.02006530761719,0.0,0.0,0.0,0.0,0.3073722720146179,0.927060604095459,-0.17279008030891418,-4.242280006408691,0.4425399899482727,0.2594200074672699,0.0,538878.0
1.0,33.16725540161133,-5.76460075378418,8.41647720336914,-6.588489532470703,0.0,0.0,0.0,0.0,0.3073722720146179,0.927060604095459,-0.17279008030891418,-4.242280006408691,0.4425399899482727,0.2594200074672699,0.0,538879.0
1.0,59.54702377319336,24.763254165649414,-63.21649169921875,-74.75574493408203,0.0,0.0,0.0,0.0,0.3073722720146179,0.927060604095459,-0.17279008030891418,-4.242280006408691,0.4425399899482727,0.2594200074672699,0.0,538880.0
1.0,50.646392822265625,42.2600212097168,-103.01626586914062,-103.09183502197266,0.0,0.0,0.0,0.0,0.3073722720146179,0.927060604095459,-0.17279008030891418,-4.242280006408691,0.4425399899482727,0.2594200074672699,0.0,538881.0
1.0,15.409581184387207,37.20464324951172,-85.33363342285156,-72.94812774658203,0.0,0.0,0.0,0.0,0.31109538674354553,0.9179664254188538,-0.17211869359016418,6.378680229187012,1.7548999786376953,2.4110798835754395,0.0,538882.0
1.0,-23.48303985595703,12.721811294555664,-17.83255386352539,0.03553217649459839,0.0,0.0,0.0,0.0,0.31109538674354553,0.9179664254188538,-0.17211869359016418,6.378680229187012,1.7548999786376953,2.4110798835754395,0.0,538883.0
1.0,-50.479549407958984,-18.329469680786133,57.647281646728516,72.6656494140625,0.0,0.0,0.0,0.0,0.31109538674354553,0.9179664254188538,-0.17211869359016418,6.378680229187012,1.7548999786376953,2.4110798835754395,0.0,538884.0
1.0,-60.169456481933594,-40.14542007446289,92.63690185546875,100.27999877929688,0.0,0.0,0.0,0.0,0.31109538674354553,0.9179664254188538,-0.17211869359016418,6.378680229187012,1.7548999786376953,2.4110798835754395,0.0,538885.0
1.0,-48.4874267578125,-41.40214157104492,67.28927612304688,65.70683288574219,0.0,0.0,0.0,0.0,0.31109538674354553,0.9179664254188538,-0.17211869359016418,6.378680229187012,1.7548999786376953,2.4110798835754395,0.0,538886.0
1.0,-13.098593711853027,-20.929811477661133,2.965101957321167,-7.360548973083496,0.0,0.0,0.0,0.0,0.31109538674354553,0.9179664254188538,-0.17211869359016418,6.378680229187012,1.7548999786376953,2.4110798835754395,0.0,538887.0
1.0,35.26094436645508,11.020983695983887,-57.622467041015625,-72.51811218261719,0.0,0.0,0.0,0.0,0.31109538674354553,0.9179664254188538,-0.17211869359016418,6.378680229187012,1.7548999786376953,2.4110798835754395,0.0,538888.0
1.0,70.8553695678711,37.244441986083984,-80.34588623046875,-94.55463409423828,0.0,0.0,0.0,0.0,0.31109538674354553,0.9179664254188538,-0.17211869359016418,6.378680229187012,1.7548999786376953,2.4110798835754395,0.0,538889.0
1.0,71.00615692138672,43.18274688720703,-56.46535873413086,-66.5931625366211,0.0,0.0,0.0,0.0,0.31109538674354553,0.9179664254188538,-0.17211869359016418,6.378680229187012,1.7548999786376953,2.4110798835754395,0.0,538890.0
1.0,35.92084503173828,25.763856887817383,-0.600956380367279,-4.778695583343506,0.0,0.0,0.0,0.0,0.31109538674354553,0.9179664254188538,-0.17211869359016418,6.378680229187012,1.7548999786376953,2.4110798835754395,0.0,538891.0
1.0,-12.115466117858887,-5.399113655090332,60.2961311340332,62.51279830932617,0.0,0.0,0.0,0.0,0.31286540627479553,0.9180884957313538,-0.17413285374641418,11.582340240478516,2.4416000843048096,1.0987199544906616,0.0,538892.0
