CH_1,CH_2,CH_3,CH_4,CH_5,CH_6,CH_7,CH_8,CH_9,CH_10,CH_11,CH_12,CH_13,CH_14,CH_15,CH_16,CH_17
1.0,-78.36990356445312,-46.5112190246582,69.81843566894531,69.79739379882812,0.0,0.0,0.0,0.0,0.33349522948265076,0.936887264251709,-0.07617168128490448,8.454039573669434,1.2818399667739868,0.5340999960899353,0.0,523342.0
1.0,-88.49805450439453,-35.85810089111328,-25.589136123657227,-12.86311149597168,0.0,0.0,0.0,0.0,0.33349522948265076,0.936887264251709,-0.07617168128490448,8.454039573669434,1.2818399667739868,0.5340999960899353,0.0,523343.0
1.0,-51.42667770385742,-5.371983528137207,-103.99665832519531,-85.56440734863281,0.0,0.0,0.0,0.0,0.33349522948265076,0.936887264251709,-0.07617168128490448,8.454039573669434,1.2818399667739868,0.5340999960899353,0.0,523344.0
1.0,15.973838806152344,28.865978240966797,-122.2027816772461,-111.29148864746094,0.0,0.0,0.0,0.0,0.33349522948265076,0.936887264251709,-0.07617168128490448,8.454039573669434,1.2818399667739868,0.5340999960899353,0.0,523345.0
1.0,70.78502655029297,47.688880920410156,-81.52816009521484,-86.7235107421875,0.0,0.0,0.0,0.0,0.33349522948265076,0.936887264251709,-0.07617168128490448,8.454039573669434,1.2818399667739868,0.5340999960899353,0.0,523346.0
1.0,72.46968841552734,40.0712890625,-19.179176330566406,-35.7582893371582,0.0,0.0,0.0,0.0,0.33349522948265076,0.936887264251709,-0.07617168128490448,8.454039573669434,1.2818399667739868,0.5340999960899353,0.0,523347.0
1.0,22.02244758605957,10.390350341796875,33.25567626953125,17.99348258972168,0.0,0.0,0.0,0.0,0.33349522948265076,0.936887264251709,-0.07617168128490448,8.454039573669434,1.2818399667739868,0.5340999960899353,0.0,523348.0
1.0,-39.3053092956543,-24.54705810546875,65.31250762939453,60.492366790771484,0.0,0.0,0.0,0.0,0.33349522948265076,0.936887264251709,-0.07617168128490448,8.454039573669434,1.2818399667739868,0.5340999960899353,0.0,523349.0
1.0,-66.52379608154297,-45.59077835083008,72.67362976074219,78.96817016601562,0.0,0.0,0.0,0.0,0.33349522948265076,0.936887264251709,-0.07617168128490448,8.454039573669434,1.2818399667739868,0.5340999960899353,0.0,523350.0
1.0,-46.82756042480469,-41.81583023071289,52.776268005371094,65.61859130859375,0.0,0.0,0.0,0.0,0.33349522948265076,0.936887264251709,-0.07617168128490448,8.454039573669434,1.2818399667739868,0.5340999960899353,0.0,523351.0
1.0,-0.34688717126846313,-15.944721221923828,12.292923927307129,26.674785614013672,0.0,0.0,0.0,0.0,0.32916176319122314,0.935727596282959,-0.07812479883432388,18.80031967163086,3.7081799507141113,7.782599925994873,0.0,523352.0
1.0,45.35552215576172,17.689987182617188,-31.83295440673828,-19.62272834777832,0.0,0.0,0.0,-0.0,0.32916176319122314,0.935727596282959,-0.07812479883432388,18.80031967163086,3.7081799507141113,7.782599925994873,0.0,523353.0
1.0,66.31849670410156,40.8298225402832,-57.95451354980469,-51.818572998046875,0.0,0.0,0.0,-0.0,0.32916176319122314,0.935727596282959,-0.07812479883432388,18.80031967163086,3.7081799507141113,7.782599925994873,0.0,523354.0
1.0,46.92058563232422,41.36776351928711,-51.88721466064453,-55.71296691894531,0.0,0.0,0.0,-0.0,0.32916176319122314,0.935727596282959,-0.07812479883432388,18.80031967163086,3.7081799507141113,7.782599925994873,0.0,523355.0
1.0,-4.441505432128906,19.79536247253418,-18.39389419555664,-32.01336669921875,0.0,0.0,0.0,-0.0,0.32916176319122314,0.935727596282959,-0.07812479883432388,18.80031967163086,3.7081799507141113,7.782599925994873,0.0,523356.0
1.0,-54.18846893310547,-11.970803260803223,23.361005783081055,4.937777519226074,0.0,0.0,0.0,-0.0,0.32916176319122314,0.935727596282959,-0.07812479883432388,18.80031967163086,3.7081799507141113,7.782599925994873,0.0,523357.0
1.0,-67.52205657958984,-36.79800033569336,54.93247985839844,37.22770690917969,0.0,0.0,0.0,-0.0,0.32916176319122314,0.935727596282959,-0.07812479883432388,18.80031967163086,3.7081799507141113,7.782599925994873,0.0,523358.0
1.0,-32.075050354003906,-40.90162658691406,66.32666015625,53.607479095458984,0.0,0.0,0.0,-0.0,0.32916176319122314,0.935727596282959,-0.07812479883432388,18.80031967163086,3.7081799507141113,7.782599925994873,0.0,523359.0
1.0,31.21399688720703,-22.001176834106445,49.63380432128906,47.009033203125,0.0,0.0,0.0,-0.0,0.32916176319122314,0.935727596282959,-0.07812479883432388,18.80031967163086,3.7081799507141113,7.782599925994873,0.0,523360.0
1.0,74.06053924560547,8.64196491241455,-2.683415174484253,10.246976852416992,0.0,0.0,0.0,-0.0,0.32916176319122314,0.935727596282959,-0.07812479883432388,18.80031967163086,3.7081799507141113,7.782599925994873,0.0,523361.0
1.0,62.64548873901367,33.22081756591797,-75.30020904541016,-47.645118713378906,0.0,0.0,0.0,-0.0,0.33325108885765076,0.9572729468345642,-0.07470683753490448,-0.4120199978351593,0.183119997382164,6.226079940795898,0.0,523362.0
1.0,14.146842002868652,38.75101852416992,-119.85852813720703,-89.3265609741211,0.0,0.0,0.0,-0.0,0.33325108885765076,0.9572729468345642,-0.07470683753490448,-0.4120199978351593,0.183119997382164,6.226079940795898,0.0,523363.0
1.0,-31.629295349121094,23.88953971862793,-92.52560424804688,-74.83308410644531,0.0,0.0,0.0,-0.0,0.33325108885765076,0.9572729468345642,-0.07470683753490448,-0.4120199978351593,0.183119997382164,6.226079940795898,0.0,523364.0
1.0,-56.849510192871094,-2.6638376712799072,-1.1879503726959229,-3.998086929321289,0.0,0.0,0.0,-0.0,0.33325108885765076,0.9572729468345642,-0.07470683753490448,-0.4120199978351593,0.183119997382164,6.226079940795898,0.0,523365.0
1.0,-63.3446159362793,-27.620824813842773,92.87715911865234,72.96649932861328,0.0,0.0,0.0,-0.0,0.33325108885765076,0.9572729468345642,-0.07470683753490448,-0.4120199978351593,0.183119997382164,6.226079940795898,0.0,523366.0
1.0,-48.9642448425293,-38.30141830444336,126.70002746582031,98.87821960449219,0.0,0.0,0.0,-0.0,0.33325108885765076,0.9572729468345642,-0.07470683753490448,-0.4120199978351593,0.183119997382164,6.226079940795898,0.0,523367.0
1.0,-7.447025299072266,-28.208269119262695,87.02365112304688,61.21794509887695,0.0,0.0,0.0,-0.0,0.33325108885765076,0.9572729468345642,-0.07470683753490448,-0.4120199978351593,0.183119997382164,6.226079940795898,0.0,523368.0
1.0,48.94763946533203,-1.7175019979476929,8.595009803771973,-7.261991500854492,0.0,0.0,0.0,-0.0,0.33325108885765076,0.9572729468345642,-0.07470683753490448,-0.4120199978351593,0.183119997382164,6.226079940795898,0.0,523369.0
1.0,83.14900970458984,26.72821044921875,-60.30746841430664,-62.34988021850586,0.0,0.0,0.0,-0.0,0.33325108885765076,0.9572729468345642,-0.07470683753490448,-0.4120199978351593,0.183119997382164,6.226079940795898,0.0,523370.0
1.0,67.42304229736328,40.787906646728516,-85.47112274169922,-74.52127075195312,0.0,0.0,0.0,-0.0,0.33325108885765076,0.9572729468345642,-0.07470683753490448,-0.4120199978351593,0.183119997382164,6.226079940795898,0.0,523371.0
1.0,14.895437240600586,32.597801208496094,-61.28394317626953,-41.359779357910156,0.0,0.0,0.0,-0.0,0.33721837401390076,0.9479345679283142,-0.06665021926164627,-7.675779819488525,-0.8240399956703186,5.142620086669922,0.0,523372.0
1.0,-36.20032501220703,7.134680271148682,-8.97602653503418,14.10263729095459,0.0,0.0,0.0,-0.0,0.33721837401390076,0.9479345679283142,-0.06665021926164627,-7.675779819488525,-0.8240399956703186,5.142620086669922,0.0,523373.0
1.0,-57.02286148071289,-21.469505310058594,41.24069595336914,59.59136962890625,0.0,0.0,0.0,-0.0,0.33721837401390076,0.9479345679283142,-0.06665021926164627,-7.675779819488525,-0.8240399956703186,5.142620086669922,0.0,523374.0
1.0,-47.14247512817383,-38.016414642333984,64.92284393310547,70.48146057128906,0.0,0.0,0.0,-0.0,0.33721837401390076,0.9479345679283142,-0.06665021926164627,-7.675779819488525,-0.8240399956703186,5.142620086669922,0.0,523375.0
1.0,-26.9461727142334,-34.54519271850586,47.55899429321289,38.104007720947266,0.0,0.0,0.0,-0.0,0.33721837401390076,0.9479345679283142,-0.06665021926164627,-7.675779819488525,-0.8240399956703186,5.142620086669922,0.0,523376.0
1.0,-8.972419738769531,-13.848443031311035,-6.850648880004883,-24.150312423706055,0.0,0.0,0.0,-0.0,0.33721837401390076,0.9479345679283142,-0.06665021926164627,-7.675779819488525,-0.8240399956703186,5.142620086669922,0.0,523377.0
1.0,10.354165077209473,12.906510353088379,-67.74699401855469,-80.90745544433594,0.0,0.0,0.0,-0.0,0.33721837401390076,0.9479345679283142,-0.06665021926164627,-7.675779819488525,-0.8240399956703186,5.142620086669922,0.0,523378.0
1.0,31.217771530151367,31.557756423950195,-92.65872192382812,-94.49803924560547,0.0,0.0,0.0,-0.0,0.33721837401390076,0.9479345679283142,-0.06665021926164627,-7.675779819488525,-0.8240399956703186,5.142620086669922,0.0,523379.0
1.0,43.135128021240234,32.259830474853516,-58.930755615234375,-52.59614944458008,0.0,0.0,0.0,-0.0,0.33721837401390076,0.9479345679283142,-0.06665021926164627,-7.675779819488525,-0.8240399956703186,5.142620086669922,0.0,523380.0
1.0,37.72617721557617,15.122594833374023,18.61691665649414,23.743072509765625,0.0,0.0,0.0,-0.0,0.33721837401390076,0.9479345679283142,-0.06665021926164627,-7.675779819488525,-0.8240399956703186,5.142620086669922,0.0,523381.0
1.0,15.760786056518555,-10.41224479675293,96.61918640136719,94.26273345947266,0.0,0.0,0.0,-0.0,0.33605870604515076,0.9127174019813538,-0.05926498398184776,10.575180053710938,-1.2360600233078003,0.3815000057220459,0.0,523382.0
1.0,-15.770883560180664,-30.695650100708008,125.8348617553711,118.4117431640625,0.0,0.0,0.0,-0.0,0.33605870604515076,0.9127174019813538,-0.05926498398184776,10.575180053710938,-1.2360600233078003,0.3815000057220459,0.0,523383.0
1.0,-39.820579528808594,-34.24924850463867,80.87776947021484,76.11837005615234,0.0,0.0,0.0,-0.0,0.33605870604515076,0.9127174019813538,-0.05926498398184776,10.575180053710938,-1.2360600233078003,0.3815000057220459,0.0,523384.0
1.0,-38.67396545410156,-18.080732345581055,-18.224346160888672,-14.819282531738281,0.0,0.0,0.0,-0.0,0.33605870604515076,0.9127174019813538,-0.05926498398184776,10.575180053710938,-1.2360600233078003,0.3815000057220459,0.0,523385.0
1.0,-20.782726287841797,9.434149742126465,-114.27803039550781,-103.60953521728516,0.0,0.0,0.0,-0.0,0.33605870604515076,0.9127174019813538,-0.05926498398184776,10.575180053710938,-1.2360600233078003,0.3815000057220459,0.0,523386.0
1.0,-7.086583137512207,32.81156539916992,-148.3950653076172,-136.98594665527344,0.0,0.0,0.0,-0.0,0.33605870604515076,0.9127174019813538,-0.05926498398184776,10.575180053710938,-1.2360600233078003,0.3815000057220459,0.0,523387.0
1.0,2.585944414138794,38.93680191040039,-99.50981140136719,-94.50680541992188,0.0,0.0,0.0,-0.0,0.33605870604515076,0.9127174019813538,-0.05926498398184776,10.575180053710938,-1.2360600233078003,0.3815000057220459,0.0,523388.0
1.0,13.92982006072998,24.403318405151367,3.9048900604248047,-0.03780859708786011,0.0,0.0,0.0,-0.0,0.33605870604515076,0.9127174019813538,-0.05926498398184776,10.575180053710938,-1.2360600233078003,0.3815000057220459,0.0,523389.0
1.0,15.24379825592041,-3.6145026683807373,105.59893035888672,95.4072265625,0.0,0.0,0.0,-0.0,0.33605870604515076,0.9127174019813538,-0.05926498398184776,10.575180053710938,-1.2360600233078003,0.3815000057220459,0.0,523390.0
1.0,1.2097030878067017,-30.88974952697754,151.75303649902344,140.4960479736328,0.0,0.0,0.0,-0.0,0.33605870604515076,0.9127174019813538,-0.05926498398184776,10.575180053710938,-1.2360600233078003,0.3815000057220459,0.0,523391.0
1.0,-6.039829254150391,-42.586666107177734,118.65245056152344,110.33544921875,0.0,0.0,0.0,-0.0,0.34081944823265076,0.9045997262001038,-0.06921368837356567,25.743619918823242,1.6938600540161133,1.7091200351715088,0.0,523392.0
1.0,12.550590515136719,-31.560821533203125,28.054874420166016,23.876007080078125,0.0,0.0,0.0,-0.0,0.34081944823265076,0.9045997262001038,-0.06921368837356567,25.743619918823242,1.6938600540161133,1.7091200351715088,0.0,523393.0
1.0,41.91831588745117,-3.0925068855285645,-69.55734252929688,-68.82876586914062,0.0,0.0,0.0,-0.0,0.34081944823265076,0.9045997262001038,-0.06921368837356567,25.743619918823242,1.6938600540161133,1.7091200351715088,0.0,523394.0
1.0,53.36129379272461,27.72245216369629,-126.43206787109375,-119.8974380493164,0.0,0.0,0.0,-0.0,0.34081944823265076,0.9045997262001038,-0.06921368837356567,25.743619918823242,1.6938600540161133,1.7091200351715088,0.0,523395.0
1.0,36.48997497558594,44.09355926513672,-116.90576934814453,-107.26323699951172,0.0,0.0,0.0,-0.0,0.34081944823265076,0.9045997262001038,-0.06921368837356567,25.743619918823242,1.6938600540161133,1.7091200351715088,0.0,523396.0
1.0,0.8090866208076477,36.9400520324707,-48.65705108642578,-41.89813995361328,0.0,0.0,0.0,-0.0,0.34081944823265076,0.9045997262001038,-0.06921368837356567,25.743619918823242,1.6938600540161133,1.7091200351715088,0.0,523397.0
1.0,-37.47627258300781,9.90264892578125,39.269676208496094,40.37337875366211,0.0,0.0,0.0,-0.0,0.34081944823265076,0.9045997262001038,-0.06921368837356567,25.743619918823242,1.6938600540161133,1.7091200351715088,0.0,523398.0
1.0,-62.08464813232422,-22.617692947387695,98.95831298828125,97.38923645019531,0.0,0.0,0.0,-0.0,0.34081944823265076,0.9045997262001038,-0.06921368837356567,25.743619918823242,1.6938600540161133,1.7091200351715088,0.0,523399.0
1.0,-62.41870880126953,-42.8121452331543,100.35232543945312,99.97061157226562,0.0,0.0,0.0,-0.0,0.34081944823265076,0.9045997262001038,-0.06921368837356567,25.743619918823242,1.6938600540161133,1.7091200351715088,0.0,523400.0
1.0,-43.63679504394531,-39.6374626159668,46.8924674987793,48.789981842041016,0.0,0.0,0.0,-0.0,0.34081944823265076,0.9045997262001038,-0.06921368837356567,25.743619918823242,1.6938600540161133,1.7091200351715088,0.0,523401.0
1.0,-17.868276596069336,-15.172296524047852,-27.01531982421875,-24.03049087524414,0.0,0.0,0.0,-0.0,0.34100255370140076,0.933774471282959,-0.07434062659740448,4.7153401374816895,-3.9218199253082275,0.3357200026512146,0.0,523402.0
1.0,15.335111618041992,17.280162811279297,-76.87075805664062,-75.84226989746094,0.0,0.0,0.0,-0.0,0.34100255370140076,0.933774471282959,-0.07434062659740448,4.7153401374816895,-3.9218199253082275,0.3357200026512146,0.0,523403.0
1.0,53.213932037353516,40.296207427978516,-78.02359008789062,-81.65107727050781,0.0,0.0,0.0,-0.0,0.34100255370140076,0.933774471282959,-0.07434062659740448,4.7153401374816895,-3.9218199253082275,0.3357200026512146,0.0,523404.0
1.0,67.1487045288086,41.56073760986328,-41.44464874267578,-47.47071838378906,0.0,0.0,0.0,-0.0,0.34100255370140076,0.933774471282959,-0.07434062659740448,4.7153401374816895,-3.9218199253082275,0.3357200026512146,0.0,523405.0
1.0,32.914669036865234,20.698423385620117,4.581574440002441,2.276867628097534,0.0,0.0,-0.0,-0.0,0.34100255370140076,0.933774471282959,-0.07434062659740448,4.7153401374816895,-3.9218199253082275,0.3357200026512146,0.0,523406.0
1.0,-30.6982421875,-11.116227149963379,39.66092300415039,43.50310134887695,0.0,0.0,-0.0,-0.0,0.34100255370140076,0.933774471282959,-0.07434062659740448,4.7153401374816895,-3.9218199253082275,0.3357200026512146,0.0,523407.0
1.0,-77.072509765625,-37.069091796875,54.8177604675293,59.88154983520508,0.0,0.0,-0.0,-0.0,0.34100255370140076,0.933774471282959,-0.07434062659740448,4.7153401374816895,-3.9218199253082275,0.3357200026512146,0.0,523408.0
1.0,-69.90520477294922,-43.12361526489258,47.411827087402344,46.75838088989258,0.0,0.0,-0.0,-0.0,0.34100255370140076,0.933774471282959,-0.07434062659740448,4.7153401374816895,-3.9218199253082275,0.3357200026512146,0.0,523409.0
1.0,-7.345833778381348,-25.941059112548828,19.127159118652344,11.913522720336914,0.0,0.0,-0.0,-0.0,0.34100255370140076,0.933774471282959,-0.07434062659740448,4.7153401374816895,-3.9218199253082275,0.3357200026512146,0.0,523410.0
1.0,73.6109619140625,4.9508056640625,-20.592185974121094,-28.499309539794922,0.0,0.0,-0.0,-0.0,0.34100255370140076,0.933774471282959,-0.07434062659740448,4.7153401374816895,-3.9218199253082275,0.3357200026512146,0.0,523411.0
1.0,118.17214965820312,32.23162078857422,-53.573951721191406,-55.567867279052734,0.0,0.0,-0.0,-0.0,0.34338292479515076,0.938962459564209,-0.07586650550365448,-4.181240081787109,-3.4182400703430176,-3.1435599327087402,0.0,523412.0
1.0,91.58089447021484,40.57256317138672,-63.898948669433594,-56.53084945678711,0.0,0.0,-0.0,-0.0,0.34338292479515076,0.938962459564209,-0.07586650550365448,-4.181240081787109,-3.4182400703430176,-3.1435599327087402,0.0,523413.0
1.0,12.781339645385742,26.13319969177246,-43.21879577636719,-30.262680053710938,0.0,0.0,-0.0,-0.0,0.34338292479515076,0.938962459564209,-0.07586650550365448,-4.181240081787109,-3.4182400703430176,-3.1435599327087402,0.0,523414.0
1.0,-63.02163314819336,-1.6902713775634766,12.599475860595703,17.846595764160156,0.0,0.0,-0.0,-0.0,0.34338292479515076,0.938962459564209,-0.07586650550365448,-4.181240081787109,-3.4182400703430176,-3.1435599327087402,0.0,523415.0
1.0,-101.48030853271484,-27.254240036010742,85.99434661865234,72.5140609741211,0.0,0.0,-0.0,-0.0,0.34338292479515076,0.938962459564209,-0.07586650550365448,-4.181240081787109,-3.4182400703430176,-3.1435599327087402,0.0,523416.0
1.0,-100.60527038574219,-37.563106536865234,121.9029769897461,97.5063705444336,0.0,0.0,-0.0,-0.0,0.34338292479515076,0.938962459564209,-0.07586650550365448,-4.181240081787109,-3.4182400703430176,-3.1435599327087402,0.0,523417.0
1.0,-64.65923309326172,-27.857393264770508,72.5762939453125,59.9720458984375,0.0,0.0,-0.0,-0.0,0.34338292479515076,0.938962459564209,-0.07586650550365448,-4.181240081787109,-3.4182400703430176,-3.1435599327087402,0.0,523418.0
1.0,1.6316734552383423,-2.89121150970459,-37.59436798095703,-24.900760650634766,0.0,0.0,-0.0,-0.0,0.34338292479515076,0.938962459564209,-0.07586650550365448,-4.181240081787109,-3.4182400703430176,-3.1435599327087402,0.0,523419.0
1.0,77.43962860107422,24.921356201171875,-123.45331573486328,-96.17102813720703,0.0,0.0,-0.0,-0.0,0.34338292479515076,0.938962459564209,-0.07586650550365448,-4.181240081787109,-3.4182400703430176,-3.1435599327087402,0.0,523420.0
1.0,124.34391021728516,40.81914520263672,-118.32347106933594,-99.39564514160156,0.0,0.0,-0.0,-0.0,0.34338292479515076,0.938962459564209,-0.07586650550365448,-4.181240081787109,-3.4182400703430176,-3.1435599327087402,0.0,523421.0
1.0,113.96651458740234,35.76564025878906,-31.349876403808594,-33.85788345336914,0.0,0.0,-0.0,-0.0,0.34039220213890076,0.9155250191688538,-0.06860333681106567,4.165979862213135,-4.928979873657227,-4.181240081787109,0.0,523422.0
1.0,43.570919036865234,11.289673805236816,65.47200012207031,47.21393966674805,0.0,0.0,-0.0,-0.0,0.34039220213890076,0.9155250191688538,-0.06860333681106567,4.165979862213135,-4.928979873657227,-4.181240081787109,0.0,523423.0
1.0,-63.14063262939453,-20.936647415161133,100.47398376464844,83.6233139038086,0.0,0.0,-0.0,-0.0,0.34039220213890076,0.9155250191688538,-0.06860333681106567,4.165979862213135,-4.928979873657227,-4.181240081787109,0.0,523424.0
1.0,-148.97996520996094,-43.38924026489258,58.33412170410156,57.094764709472656,0.0,0.0,-0.0,-0.0,0.34039220213890076,0.9155250191688538,-0.06860333681106567,4.165979862213135,-4.928979873657227,-4.181240081787109,0.0,523425.0
1.0,-152.42160034179688,-42.54481506347656,-21.649755477905273,-5.851667881011963,0.0,0.0,-0.0,-0.0,0.34039220213890076,0.9155250191688538,-0.06860333681106567,4.165979862213135,-4.928979873657227,-4.181240081787109,0.0,523426.0
1.0,-70.28031921386719,-18.559463500976562,-87.71765899658203,-65.1932144165039,0.0,0.0,-0.0,-0.0,0.34039220213890076,0.9155250191688538,-0.06860333681106567,4.165979862213135,-4.928979873657227,-4.181240081787109,0.0,523427.0
1.0,38.034278869628906,14.836623191833496,-104.82554626464844,-90.0334243774414,0.0,0.0,-0.0,-0.0,0.34039220213890076,0.9155250191688538,-0.06860333681106567,4.165979862213135,-4.928979873657227,-4.181240081787109,0.0,523428.0
1.0,112.33661651611328,39.11029052734375,-63.73847961425781,-66.41844177246094,0.0,0.0,-0.0,-0.0,0.34039220213890076,0.9155250191688538,-0.06860333681106567,4.165979862213135,-4.928979873657227,-4.181240081787109,0.0,523429.0
1.0,128.63075256347656,41.62235641479492,16.084434509277344,-3.3566761016845703,0.0,0.0,-0.0,-0.0,0.34039220213890076,0.9155250191688538,-0.06860333681106567,4.165979862213135,-4.928979873657227,-4.181240081787109,0.0,523430.0
1.0,92.13600158691406,22.09930419921875,97.10953521728516,70.13538360595703,0.0,0.0,-0.0,-0.0,0.34039220213890076,0.9155250191688538,-0.06860333681106567,4.165979862213135,-4.928979873657227,-4.181240081787109,0.0,523431.0
1.0,25.710899353027344,-8.466174125671387,142.6168212890625,119.83007049560547,0.0,0.0,-0.0,-0.0,0.33862218260765076,0.9119239449501038,-0.06866437196731567,11.979100227355957,-4.990019798278809,-8.408260345458984,0.0,523432.0
1.0,-41.831504821777344,-33.984439849853516,127.4061508178711,118.63866424560547,0.0,0.0,-0.0,0.0,0.33862218260765076,0.9119239449501038,-0.06866437196731567,11.979100227355957,-4.990019798278809,-8.408260345458984,0.0,523433.0
1.0,-87.65017700195312,-41.02149963378906,49.80192184448242,59.27581024169922,0.0,0.0,-0.0,0.0,0.33862218260765076,0.9119239449501038,-0.06866437196731567,11.979100227355957,-4.990019798278809,-8.408260345458984,0.0,523434.0
1.0,-96.35900115966797,-25.610553741455078,-57.42655563354492,-33.731788635253906,0.0,0.0,-0.0,0.0,0.33862218260765076,0.9119239449501038,-0.06866437196731567,11.979100227355957,-4.990019798278809,-8.408260345458984,0.0,523435.0
1.0,-63.36745834350586,4.027308940887451,-142.51205444335938,-114.87906646728516,0.0,0.0,-0.0,0.0,0.33862218260765076,0.9119239449501038,-0.06866437196731567,11.979100227355957,-4.990019798278809,-8.408260345458984,0.0,523436.0
1.0,-3.5416932106018066,31.324628829956055,-164.22683715820312,-144.26007080078125,0.0,0.0,-0.0,0.0,0.33862218260765076,0.9119239449501038,-0.06866437196731567,11.979100227355957,-4.990019798278809,-8.408260345458984,0.0,523437.0
1.0,55.60871124267578,41.173282623291016,-109.55242156982422,-106.08859252929688,0.0,0.0,-0.0,0.0,0.33862218260765076,0.9119239449501038,-0.06866437196731567,11.979100227355957,-4.990019798278809,-8.408260345458984,0.0,523438.0
1.0,88.98162078857422,28.853635787963867,-1.0748767852783203,-16.84445571899414,0.0,0.0,-0.0,0.0,0.33862218260765076,0.9119239449501038,-0.06866437196731567,11.979100227355957,-4.990019798278809,-8.408260345458984,0.0,523439.0
1.0,78.01815795898438,1.3484983444213867,106.83676147460938,78.78292846679688,0.0,0.0,-0.0,0.0,0.33862218260765076,0.9119239449501038,-0.06866437196731567,11.979100227355957,-4.990019798278809,-8.408260345458984,0.0,523440.0
1.0,19.90289878845215,-27.192140579223633,153.7310028076172,129.47235107421875,0.0,0.0,-0.0,0.0,0.33862218260765076,0.9119239449501038,-0.06866437196731567,11.979100227355957,-4.990019798278809,-8.408260345458984,0.0,523441.0
1.0,-55.39624786376953,-41.929447174072266,113.7784652709961,108.26638793945312,0.0,0.0,-0.0,0.0,0.34423738718032837,0.930295467376709,-0.07842997461557388,4.410140037536621,-2.8536200523376465,-7.385839939117432,0.0,523442.0
1.0,-96.46814727783203,-34.42638397216797,17.134910583496094,31.79813003540039,0.0,0.0,-0.0,0.0,0.34423738718032837,0.930295467376709,-0.07842997461557388,4.410140037536621,-2.8536200523376465,-7.385839939117432,0.0,523443.0
1.0,-73.42137908935547,-7.692653656005859,-74.8611831665039,-52.10797882080078,0.0,0.0,-0.0,0.0,0.34423738718032837,0.930295467376709,-0.07842997461557388,4.410140037536621,-2.8536200523376465,-7.385839939117432,0.0,523444.0
1.0,-7.1959686279296875,23.900503158569336,-118.0221176147461,-100.91606140136719,0.0,0.0,-0.0,0.0,0.34423738718032837,0.930295467376709,-0.07842997461557388,4.410140037536621,-2.8536200523376465,-7.385839939117432,0.0,523445.0
1.0,52.221527099609375,42.13984680175781,-103.8421859741211,-98.98519134521484,0.0,0.0,-0.0,0.0,0.34423738718032837,0.930295467376709,-0.07842997461557388,4.410140037536621,-2.8536200523376465,-7.385839939117432,0.0,523446.0
1.0,71.38455963134766,36.83842849731445,-43.85359191894531,-51.49443435668945,0.0,0.0,-0.0,0.0,0.34423738718032837,0.930295467376709,-0.07842997461557388,4.410140037536621,-2.8536200523376465,-7.385839939117432,0.0,523447.0
1.0,48.25515365600586,11.712821960449219,37.82655715942383,21.216175079345703,0.0,0.0,-0.0,0.0,0.34423738718032837,0.930295467376709,-0.07842997461557388,4.410140037536621,-2.8536200523376465,-7.385839939117432,0.0,523448.0
1.0,5.809304714202881,-19.140411376953125,106.6402816772461,87.04676055908203,0.0,0.0,-0.0,0.0,0.34423738718032837,0.930295467376709,-0.07842997461557388,4.410140037536621,-2.8536200523376465,-7.385839939117432,0.0,523449.0
1.0,-19.40343475341797,-38.81694412231445,133.93511962890625,117.10665130615234,0.0,0.0,-0.0,0.0,0.34423738718032837,0.930295467376709,-0.07842997461557388,4.410140037536621,-2.8536200523376465,-7.385839939117432,0.0,523450.0
1.0,-9.387419700622559,-36.51473617553711,106.2031478881836,97.07559967041016,0.0,0.0,-0.0,0.0,0.34423738718032837,0.930295467376709,-0.07842997461557388,4.410140037536621,-2.8536200523376465,-7.385839939117432,0.0,523451.0
1.0,13.588774681091309,-14.108531951904297,24.326248168945312,28.95024871826172,0.0,0.0,-0.0,0.0,0.34265050292015076,0.940366268157959,-0.0889890268445015,1.2208000421524048,-0.8850799798965454,-6.363420009613037,0.0,523452.0
1.0,16.072702407836914,15.169281005859375,-83.97696685791016,-61.24598693847656,0.0,0.0,-0.0,0.0,0.34265050292015076,0.940366268157959,-0.0889890268445015,1.2208000421524048,-0.8850799798965454,-6.363420009613037,0.0,523453.0
1.0,-4.3585124015808105,34.88812255859375,-161.29824829101562,-124.75397491455078,0.0,0.0,-0.0,0.0,0.34265050292015076,0.940366268157959,-0.0889890268445015,1.2208000421524048,-0.8850799798965454,-6.363420009613037,0.0,523454.0
1.0,-24.056875228881836,34.77768325805664,-155.59568786621094,-120.92476654052734,0.0,0.0,-0.0,0.0,0.34265050292015076,0.940366268157959,-0.0889890268445015,1.2208000421524048,-0.8850799798965454,-6.363420009613037,0.0,523455.0
1.0,-30.96479606628418,15.799588203430176,-59.111785888671875,-47.270668029785156,0.0,0.0,-0.0,0.0,0.34265050292015076,0.940366268157959,-0.0889890268445015,1.2208000421524048,-0.8850799798965454,-6.363420009613037,0.0,523456.0
1.0,-34.047447204589844,-11.638632774353027,76.81626892089844,54.757511138916016,0.0,0.0,-0.0,0.0,0.34265050292015076,0.940366268157959,-0.0889890268445015,1.2208000421524048,-0.8850799798965454,-6.363420009613037,0.0,523457.0
1.0,-41.316688537597656,-33.435264587402344,159.50161743164062,115.473876953125,0.0,0.0,-0.0,0.0,0.34265050292015076,0.940366268157959,-0.0889890268445015,1.2208000421524048,-0.8850799798965454,-6.363420009613037,0.0,523458.0
1.0,-48.40623474121094,-38.05531311035156,124.70806884765625,86.96995544433594,0.0,0.0,-0.0,0.0,0.34265050292015076,0.940366268157959,-0.0889890268445015,1.2208000421524048,-0.8850799798965454,-6.363420009613037,0.0,523459.0
1.0,-40.237274169921875,-21.80809783935547,3.741204261779785,-6.930025100708008,0.0,0.0,-0.0,0.0,0.34265050292015076,0.940366268157959,-0.0889890268445015,1.2208000421524048,-0.8850799798965454,-6.363420009613037,0.0,523460.0
1.0,1.468072772026062,8.388229370117188,-102.68144226074219,-89.13619232177734,0.0,0.0,-0.0,0.0,0.34265050292015076,0.940366268157959,-0.0889890268445015,1.2208000421524048,-0.8850799798965454,-6.363420009613037,0.0,523461.0
1.0,73.31126403808594,36.717430114746094,-118.00890350341797,-98.83168029785156,0.0,0.0,-0.0,0.0,0.34014806151390076,0.941220760345459,-0.08428933471441269,-3.4792799949645996,0.9919000267982483,-3.631880044937134,0.0,523462.0
1.0,131.183349609375,46.55868148803711,-50.230220794677734,-38.36256408691406,0.0,0.0,-0.0,0.0,0.34014806151390076,0.941220760345459,-0.08428933471441269,-3.4792799949645996,0.9919000267982483,-3.631880044937134,0.0,523463.0
1.0,121.86320495605469,31.309907913208008,31.98395538330078,39.150936126708984,0.0,0.0,-0.0,0.0,0.34014806151390076,0.941220760345459,-0.08428933471441269,-3.4792799949645996,0.9919000267982483,-3.631880044937134,0.0,523464.0
1.0,42.77333450317383,-0.8923666477203369,72.58238220214844,82.23948669433594,0.0,0.0,-0.0,0.0,0.34014806151390076,0.941220760345459,-0.08428933471441269,-3.4792799949645996,0.9919000267982483,-3.631880044937134,0.0,523465.0
1.0,-55.41282272338867,-32.34563064575195,67.92439270019531,78.62471008300781,0.0,0.0,-0.0,0.0,0.34014806151390076,0.941220760345459,-0.08428933471441269,-3.4792799949645996,0.9919000267982483,-3.631880044937134,0.0,523466.0
1.0,-121.41656494140625,-46.39073944091797,41.97276306152344,45.17133712768555,0.0,0.0,-0.0,0.0,0.34014806151390076,0.941220760345459,-0.08428933471441269,-3.4792799949645996,0.9919000267982483,-3.631880044937134,0.0,523467.0
1.0,-126.3687744140625,-36.244686126708984,7.09230899810791,-2.7409141063690186,0.0,0.0,-0.0,0.0,0.34014806151390076,0.941220760345459,-0.08428933471441269,-3.4792799949645996,0.9919000267982483,-3.631880044937134,0.0,523468.0
1.0,-66.86690521240234,-7.883734703063965,-36.44902420043945,-55.12324523925781,0.0,0.0,-0.0,0.0,0.34014806151390076,0.941220760345459,-0.08428933471441269,-3.4792799949645996,0.9919000267982483,-3.631880044937134,0.0,523469.0
1.0,21.607044219970703,23.209228515625,-73.09253692626953,-89.74063873291016,0.0,0.0,-0.0,0.0,0.34014806151390076,0.941220760345459,-0.08428933471441269,-3.4792799949645996,0.9919000267982483,-3.631880044937134,0.0,523470.0
1.0,87.46237182617188,40.36809158325195,-73.43014526367188,-80.2427749633789,0.0,0.0,-0.0,0.0,0.34014806151390076,0.941220760345459,-0.08428933471441269,-3.4792799949645996,0.9919000267982483,-3.631880044937134,0.0,523471.0
1.0,101.93482971191406,35.123939514160156,-29.033061981201172,-25.772151947021484,0.0,0.0,-0.0,0.0,0.33422765135765076,0.930417537689209,-0.07134991139173508,4.471179962158203,-2.716279983520508,-6.470240116119385,0.0,523472.0
1.0,64.20660400390625,11.097404479980469,35.69218444824219,45.28205108642578,0.0,0.0,-0.0,0.0,0.33422765135765076,0.930417537689209,-0.07134991139173508,4.471179962158203,-2.716279983520508,-6.470240116119385,0.0,523473.0
1.0,-2.6170694828033447,-18.675012588500977,86.01969909667969,97.24343872070312,0.0,0.0,-0.0,0.0,0.33422765135765076,0.930417537689209,-0.07134991139173508,4.471179962158203,-2.716279983520508,-6.470240116119385,0.0,523474.0
1.0,-59.08077621459961,-38.0971794128418,95.73350524902344,102.9976577758789,0.0,0.0,-0.0,0.0,0.33422765135765076,0.930417537689209,-0.07134991139173508,4.471179962158203,-2.716279983520508,-6.470240116119385,0.0,523475.0
1.0,-75.29840850830078,-36.52042770385742,55.360862731933594,55.21330261230469,0.0,0.0,-0.0,0.0,0.33422765135765076,0.930417537689209,-0.07134991139173508,4.471179962158203,-2.716279983520508,-6.470240116119385,0.0,523476.0
1.0,-48.350914001464844,-14.831255912780762,-18.16632652282715,-22.20721435546875,0.0,0.0,-0.0,0.0,0.33422765135765076,0.930417537689209,-0.07134991139173508,4.471179962158203,-2.716279983520508,-6.470240116119385,0.0,523477.0
1.0,1.9077082872390747,15.148770332336426,-85.50828552246094,-85.58892822265625,0.0,0.0,-0.0,0.0,0.33422765135765076,0.930417537689209,-0.07134991139173508,4.471179962158203,-2.716279983520508,-6.470240116119385,0.0,523478.0
1.0,43.446746826171875,36.843074798583984,-110.41915893554688,-103.38809204101562,0.0,0.0,-0.0,0.0,0.33422765135765076,0.930417537689209,-0.07134991139173508,4.471179962158203,-2.716279983520508,-6.470240116119385,0.0,523479.0
1.0,48.9036750793457,38.162208557128906,-81.77256774902344,-72.65084838867188,0.0,0.0,-0.0,0.0,0.33422765135765076,0.930417537689209,-0.07134991139173508,4.471179962158203,-2.716279983520508,-6.470240116119385,0.0,523480.0
1.0,16.085739135742188,18.52597999572754,-14.93224811553955,-11.504039764404297,0.0,0.0,-0.0,0.0,0.33422765135765076,0.930417537689209,-0.07134991139173508,4.471179962158203,-2.716279983520508,-6.470240116119385,0.0,523481.0
1.0,-28.385324478149414,-11.260580062866211,58.534080505371094,52.02131652832031,0.0,0.0,-0.0,0.0,0.33337315917015076,0.927182674407959,-0.07025128602981567,15.54994010925293,0.3509800136089325,-1.1597599983215332,0.0,523482.0
1.0,-52.3090934753418,-34.85099411010742,105.2874526977539,89.47947692871094,0.0,0.0,-0.0,0.0,0.33337315917015076,0.927182674407959,-0.07025128602981567,15.54994010925293,0.3509800136089325,-1.1597599983215332,0.0,523483.0
1.0,-41.57339859008789,-38.94898986816406,104.41578674316406,83.41011047363281,0.0,0.0,-0.0,0.0,0.33337315917015076,0.927182674407959,-0.07025128602981567,15.54994010925293,0.3509800136089325,-1.1597599983215332,0.0,523484.0
1.0,-0.372688353061676,-20.857574462890625,54.06011199951172,35.22517395019531,0.0,0.0,-0.0,0.0,0.33337315917015076,0.927182674407959,-0.07025128602981567,15.54994010925293,0.3509800136089325,-1.1597599983215332,0.0,523485.0
1.0,52.375213623046875,9.72361946105957,-24.938377380371094,-31.75168800354004,0.0,0.0,0.0,0.0,0.33337315917015076,0.927182674407959,-0.07025128602981567,15.54994010925293,0.3509800136089325,-1.1597599983215332,0.0,523486.0
1.0,84.57881164550781,35.70077896118164,-91.61592864990234,-79.47331237792969,0.0,0.0,0.0,0.0,0.33337315917015076,0.927182674407959,-0.07025128602981567,15.54994010925293,0.3509800136089325,-1.1597599983215332,0.0,523487.0
1.0,70.67766571044922,42.33860397338867,-108.63809204101562,-80.40924835205078,0.0,0.0,0.0,0.0,0.33337315917015076,0.927182674407959,-0.07025128602981567,15.54994010925293,0.3509800136089325,-1.1597599983215332,0.0,523488.0
1.0,14.317584037780762,25.905582427978516,-70.5064697265625,-39.294185638427734,0.0,0.0,0.0,0.0,0.33337315917015076,0.927182674407959,-0.07025128602981567,15.54994010925293,0.3509800136089325,-1.1597599983215332,0.0,523489.0
1.0,-55.0704231262207,-5.007233142852783,-4.34103536605835,14.773021697998047,0.0,0.0,0.0,0.0,0.33337315917015076,0.927182674407959,-0.07025128602981567,15.54994010925293,0.3509800136089325,-1.1597599983215332,0.0,523490.0
1.0,-99.98633575439453,-34.298099517822266,53.60364532470703,53.041297912597656,0.0,0.0,0.0,0.0,0.33337315917015076,0.927182674407959,-0.07025128602981567,15.54994010925293,0.3509800136089325,-1.1597599983215332,0.0,523491.0
1.0,-92.62409973144531,-46.0449104309082,79.80313873291016,62.32890701293945,0.0,0.0,0.0,0.0,0.33312901854515076,0.9451269507408142,-0.07348614186048508,13.199899673461914,-2.1516599655151367,1.1445000171661377,0.0,523492.0
1.0,-36.039485931396484,-33.4428825378418,67.49933624267578,43.112552642822266,0.0,0.0,0.0,0.0,0.33312901854515076,0.9451269507408142,-0.07348614186048508,13.199899673461914,-2.1516599655151367,1.1445000171661377,0.0,523493.0
1.0,34.896114349365234,-3.3283791542053223,23.51158332824707,3.550230026245117,0.0,0.0,0.0,0.0,0.33312901854515076,0.9451269507408142,-0.07348614186048508,13.199899673461914,-2.1516599655151367,1.1445000171661377,0.0,523494.0
1.0,82.05867767333984,27.93269157409668,-27.259145736694336,-36.12464904785156,0.0,0.0,0.0,0.0,0.33312901854515076,0.9451269507408142,-0.07348614186048508,13.199899673461914,-2.1516599655151367,1.1445000171661377,0.0,523495.0
1.0,88.65006256103516,43.90251541137695,-50.02234649658203,-47.36732482910156,0.0,0.0,0.0,0.0,0.33312901854515076,0.9451269507408142,-0.07348614186048508,13.199899673461914,-2.1516599655151367,1.1445000171661377,0.0,523496.0
1.0,59.808475494384766,36.80708694458008,-31.569589614868164,-21.1894474029541,0.0,0.0,0.0,0.0,0.33312901854515076,0.9451269507408142,-0.07348614186048508,13.199899673461914,-2.1516599655151367,1.1445000171661377,0.0,523497.0
1.0,7.170497417449951,10.638339042663574,4.135958671569824,16.65877342224121,0.0,0.0,0.0,0.0,0.33312901854515076,0.9451269507408142,-0.07348614186048508,13.199899673461914,-2.1516599655151367,1.1445000171661377,0.0,523498.0
1.0,-58.55875778198242,-21.458969116210938,21.740741729736328,32.58109664916992,0.0,0.0,0.0,0.0,0.33312901854515076,0.9451269507408142,-0.07348614186048508,13.199899673461914,-2.1516599655151367,1.1445000171661377,0.0,523499.0
1.0,-112.8556900024414,-42.65266799926758,9.635781288146973,18.075042724609375,0.0,0.0,0.0,0.0,0.33312901854515076,0.9451269507408142,-0.07348614186048508,13.199899673461914,-2.1516599655151367,1.1445000171661377,0.0,523500.0
1.0,-117.05551147460938,-40.64228057861328,-15.978791236877441,-10.92715835571289,0.0,0.0,0.0,0.0,0.33312901854515076,0.9451269507408142,-0.07348614186048508,13.199899673461914,-2.1516599655151367,1.1445000171661377,0.0,523501.0
1.0,-55.80327606201172,-15.66020679473877,-33.68218231201172,-34.350990295410156,0.0,0.0,0.0,0.0,0.33666905760765076,0.9544653296470642,-0.08197000622749329,3.113039970397949,-0.5188400149345398,4.410140037536621,0.0,523502.0
1.0,43.38518142700195,18.8306941986084,-33.12346267700195,-39.7462158203125,0.0,0.0,0.0,0.0,0.33666905760765076,0.9544653296470642,-0.08197000622749329,3.113039970397949,-0.5188400149345398,4.410140037536621,0.0,523503.0
1.0,134.9330596923828,44.072811126708984,-13.186915397644043,-23.494504928588867,0.0,0.0,0.0,0.0,0.33666905760765076,0.9544653296470642,-0.08197000622749329,3.113039970397949,-0.5188400149345398,4.410140037536621,0.0,523504.0
1.0,171.7117156982422,46.62816619873047,22.176523208618164,9.593829154968262,0.0,0.0,0.0,0.0,0.33666905760765076,0.9544653296470642,-0.08197000622749329,3.113039970397949,-0.5188400149345398,4.410140037536621,0.0,523505.0
1.0,117.66678619384766,24.968700408935547,62.43331527709961,47.887794494628906,0.0,0.0,0.0,0.0,0.33666905760765076,0.9544653296470642,-0.08197000622749329,3.113039970397949,-0.5188400149345398,4.410140037536621,0.0,523506.0
1.0,-6.407101154327393,-9.991724967956543,87.8023452758789,74.1799087524414,0.0,0.0,0.0,0.0,0.33666905760765076,0.9544653296470642,-0.08197000622749329,3.113039970397949,-0.5188400149345398,4.410140037536621,0.0,523507.0
1.0,-121.51518249511719,-40.03155517578125,73.43047332763672,67.723388671875,0.0,0.0,0.0,0.0,0.33666905760765076,0.9544653296470642,-0.08197000622749329,3.113039970397949,-0.5188400149345398,4.410140037536621,0.0,523508.0
1.0,-163.82928466796875,-49.45806121826172,9.312844276428223,18.279796600341797,0.0,0.0,0.0,0.0,0.33666905760765076,0.9544653296470642,-0.08197000622749329,3.113039970397949,-0.5188400149345398,4.410140037536621,0.0,523509.0
1.0,-123.867431640625,-33.66471862792969,-78.49004364013672,-55.235328674316406,0.0,0.0,0.0,0.0,0.33666905760765076,0.9544653296470642,-0.08197000622749329,3.113039970397949,-0.5188400149345398,4.410140037536621,0.0,523510.0
1.0,-29.973953247070312,-1.0190573930740356,-135.2193603515625,-107.84822082519531,0.0,0.0,0.0,0.0,0.33666905760765076,0.9544653296470642,-0.08197000622749329,3.113039970397949,-0.5188400149345398,4.410140037536621,0.0,523511.0
1.0,67.75399780273438,31.164928436279297,-117.90559387207031,-100.5446548461914,0.0,0.0,0.0,0.0,0.33624181151390076,0.937863826751709,-0.08361794799566269,5.890359878540039,1.3428800106048584,4.37962007522583,0.0,523512.0
1.0,117.309326171875,45.43220520019531,-36.89952850341797,-36.566368103027344,0.0,0.0,0.0,0.0,0.33624181151390076,0.937863826751709,-0.08361794799566269,5.890359878540039,1.3428800106048584,4.37962007522583,0.0,523513.0
1.0,95.05683898925781,34.466434478759766,51.56016540527344,39.35053634643555,0.0,0.0,0.0,0.0,0.33624181151390076,0.937863826751709,-0.08361794799566269,5.890359878540039,1.3428800106048584,4.37962007522583,0.0,523514.0
1.0,20.19239616394043,5.212637424468994,99.19706726074219,83.21426391601562,0.0,0.0,0.0,-0.0,0.33624181151390076,0.937863826751709,-0.08361794799566269,5.890359878540039,1.3428800106048584,4.37962007522583,0.0,523515.0
1.0,-57.06258010864258,-25.75831413269043,95.99561309814453,82.25357055664062,0.0,0.0,0.0,-0.0,0.33624181151390076,0.937863826751709,-0.08361794799566269,5.890359878540039,1.3428800106048584,4.37962007522583,0.0,523516.0
1.0,-88.1723861694336,-41.47939682006836,57.318790435791016,48.936336517333984,0.0,0.0,0.0,-0.0,0.33624181151390076,0.937863826751709,-0.08361794799566269,5.890359878540039,1.3428800106048584,4.37962007522583,0.0,523517.0
1.0,-59.125213623046875,-33.50490188598633,7.1034369468688965,5.124889850616455,0.0,0.0,0.0,-0.0,0.33624181151390076,0.937863826751709,-0.08361794799566269,5.890359878540039,1.3428800106048584,4.37962007522583,0.0,523518.0
1.0,7.007758617401123,-6.338168144226074,-34.165802001953125,-30.928470611572266,0.0,0.0,0.0,-0.0,0.33624181151390076,0.937863826751709,-0.08361794799566269,5.890359878540039,1.3428800106048584,4.37962007522583,0.0,523519.0
1.0,70.14273834228516,24.659561157226562,-57.36383056640625,-51.641475677490234,0.0,0.0,0.0,-0.0,0.33624181151390076,0.937863826751709,-0.08361794799566269,5.890359878540039,1.3428800106048584,4.37962007522583,0.0,523520.0
1.0,94.60669708251953,41.63819122314453,-58.93162155151367,-54.04652404785156,0.0,0.0,0.0,-0.0,0.33624181151390076,0.937863826751709,-0.08361794799566269,5.890359878540039,1.3428800106048584,4.37962007522583,0.0,523521.0
1.0,64.45130920410156,34.93940353393555,-37.24955749511719,-34.60917282104492,0.0,0.0,0.0,-0.0,0.33520421385765076,0.926877498626709,-0.08349587768316269,8.881319999694824,1.1139800548553467,1.2208000421524048,0.0,523522.0
1.0,-9.788013458251953,8.386612892150879,-2.2325572967529297,1.1261264085769653,0.0,0.0,0.0,-0.0,0.33520421385765076,0.926877498626709,-0.08349587768316269,8.881319999694824,1.1139800548553467,1.2208000421524048,0.0,523523.0
1.0,-89.25322723388672,-23.37468147277832,26.42391586303711,33.68821716308594,0.0,0.0,0.0,-0.0,0.33520421385765076,0.926877498626709,-0.08349587768316269,8.881319999694824,1.1139800548553467,1.2208000421524048,0.0,523524.0
1.0,-124.87060546875,-42.56387710571289,37.29978942871094,45.64750671386719,0.0,0.0,0.0,-0.0,0.33520421385765076,0.926877498626709,-0.08349587768316269,8.881319999694824,1.1139800548553467,1.2208000421524048,0.0,523525.0
1.0,-90.52072143554688,-37.987125396728516,33.98886489868164,36.215267181396484,0.0,0.0,0.0,-0.0,0.33520421385765076,0.926877498626709,-0.08349587768316269,8.881319999694824,1.1139800548553467,1.2208000421524048,0.0,523526.0
1.0,2.487215518951416,-11.512003898620605,24.430957794189453,15.13438606262207,0.0,0.0,0.0,-0.0,0.33520421385765076,0.926877498626709,-0.08349587768316269,8.881319999694824,1.1139800548553467,1.2208000421524048,0.0,523527.0
1.0,105.2731704711914,22.50689697265625,10.559630393981934,-9.19616985321045,0.0,0.0,0.0,-0.0,0.33520421385765076,0.926877498626709,-0.08349587768316269,8.881319999694824,1.1139800548553467,1.2208000421524048,0.0,523528.0
1.0,149.91200256347656,44.458412170410156,-11.358057022094727,-31.910858154296875,0.0,0.0,0.0,-0.0,0.33520421385765076,0.926877498626709,-0.08349587768316269,8.881319999694824,1.1139800548553467,1.2208000421524048,0.0,523529.0
1.0,100.94011688232422,41.20064163208008,-40.2973747253418,-47.89767074584961,0.0,0.0,0.0,-0.0,0.33520421385765076,0.926877498626709,-0.08349587768316269,8.881319999694824,1.1139800548553467,1.2208000421524048,0.0,523530.0
1.0,-10.164796829223633,14.624106407165527,-59.81519317626953,-47.98543167114258,0.0,0.0,0.0,-0.0,0.33520421385765076,0.926877498626709,-0.08349587768316269,8.881319999694824,1.1139800548553467,1.2208000421524048,0.0,523531.0
1.0,-109.93098449707031,-20.101863861083984,-47.38260269165039,-23.868986129760742,0.0,0.0,0.0,-0.0,0.33923253417015076,0.927365779876709,-0.08282449841499329,6.3176398277282715,0.061039999127388,-0.4425399899482727,0.0,523532.0
1.0,-140.92298889160156,-43.91886520385742,-0.18410010635852814,19.226713180541992,0.0,0.0,0.0,-0.0,0.33923253417015076,0.927365779876709,-0.08282449841499329,6.3176398277282715,0.061039999127388,-0.4425399899482727,0.0,523533.0
1.0,-94.76874542236328,-44.145965576171875,55.76715850830078,59.9832878112793,0.0,0.0,0.0,-0.0,0.33923253417015076,0.927365779876709,-0.08282449841499329,6.3176398277282715,0.061039999127388,-0.4425399899482727,0.0,523534.0
1.0,-0.04219397157430649,-20.76361846923828,82.3655014038086,72.50973510742188,0.0,0.0,0.0,-0.0,0.33923253417015076,0.927365779876709,-0.08282449841499329,6.3176398277282715,0.061039999127388,-0.4425399899482727,0.0,523535.0
1.0,93.48348236083984,13.660330772399902,58.04833221435547,45.26493835449219,0.0,0.0,0.0,-0.0,0.33923253417015076,0.927365779876709,-0.08282449841499329,6.3176398277282715,0.061039999127388,-0.4425399899482727,0.0,523536.0
1.0,129.98757934570312,40.453067779541016,0.3326795995235443,-4.666111469268799,0.0,0.0,0.0,-0.0,0.33923253417015076,0.927365779876709,-0.08282449841499329,6.3176398277282715,0.061039999127388,-0.4425399899482727,0.0,523537.0
1.0,89.1763687133789,45.44896697998047,-47.9013671875,-44.466087341308594,0.0,0.0,0.0,-0.0,0.33923253417015076,0.927365779876709,-0.08282449841499329,6.3176398277282715,0.061039999127388,-0.4425399899482727,0.0,523538.0
1.0,7.887918949127197,27.008495330810547,-58.643375396728516,-54.35575866699219,0.0,0.0,0.0,-0.0,0.33923253417015076,0.927365779876709,-0.08282449841499329,6.3176398277282715,0.061039999127388,-0.4425399899482727,0.0,523539.0
1.0,-60.29857635498047,-4.512780666351318,-35.4465446472168,-36.555423736572266,0.0,0.0,0.0,-0.0,0.33923253417015076,0.927365779876709,-0.08282449841499329,6.3176398277282715,0.061039999127388,-0.4425399899482727,0.0,523540.0
1.0,-86.64756774902344,-33.197242736816406,-1.1031256914138794,-6.83193302154541,0.0,0.0,0.0,-0.0,0.33923253417015076,0.927365779876709,-0.08282449841499329,6.3176398277282715,0.061039999127388,-0.4425399899482727,0.0,523541.0
1.0,-66.18511199951172,-44.74128723144531,23.306867599487305,18.137950897216797,0.0,0.0,0.0,-0.0,0.34033116698265076,0.935239315032959,-0.07958964258432388,-6.332900047302246,0.1373399943113327,-4.608520030975342,0.0,523542.0
1.0,-13.67172622680664,-32.96086502075195,33.752506256103516,32.55802917480469,0.0,0.0,0.0,-0.0,0.34033116698265076,0.935239315032959,-0.07958964258432388,-6.332900047302246,0.1373399943113327,-4.608520030975342,0.0,523543.0
1.0,35.771324157714844,-3.4478206634521484,33.53877639770508,36.01496505737305,0.0,0.0,0.0,-0.0,0.34033116698265076,0.935239315032959,-0.07958964258432388,-6.332900047302246,0.1373399943113327,-4.608520030975342,0.0,523544.0
1.0,51.1712532043457,28.37915802001953,17.43377113342285,22.524341583251953,0.0,0.0,0.0,-0.0,0.34033116698265076,0.935239315032959,-0.07958964258432388,-6.332900047302246,0.1373399943113327,-4.608520030975342,0.0,523545.0
1.0,30.326799392700195,44.83125686645508,-17.899444580078125,-9.907702445983887,0.0,0.0,0.0,-0.0,0.34033116698265076,0.935239315032959,-0.07958964258432388,-6.332900047302246,0.1373399943113327,-4.608520030975342,0.0,523546.0
1.0,-7.7777910232543945,36.39081954956055,-54.44744873046875,-44.13676452636719,0.0,0.0,0.0,-0.0,0.34033116698265076,0.935239315032959,-0.07958964258432388,-6.332900047302246,0.1373399943113327,-4.608520030975342,0.0,523547.0
1.0,-39.00584411621094,7.864610195159912,-60.59492492675781,-52.862239837646484,0.0,0.0,0.0,-0.0,0.34033116698265076,0.935239315032959,-0.07958964258432388,-6.332900047302246,0.1373399943113327,-4.608520030975342,0.0,523548.0
1.0,-43.86695098876953,-25.00407600402832,-24.475576400756836,-26.76063346862793,0.0,0.0,0.0,-0.0,0.34033116698265076,0.935239315032959,-0.07958964258432388,-6.332900047302246,0.1373399943113327,-4.608520030975342,0.0,523549.0
1.0,-16.912029266357422,-44.577247619628906,29.51084327697754,13.76916790008545,0.0,0.0,0.0,-0.0,0.34033116698265076,0.935239315032959,-0.07958964258432388,-6.332900047302246,0.1373399943113327,-4.608520030975342,0.0,523550.0
1.0,25.290525436401367,-40.40676498413086,64.31879425048828,39.96332550048828,0.0,0.0,0.0,-0.0,0.34033116698265076,0.935239315032959,-0.07958964258432388,-6.332900047302246,0.1373399943113327,-4.608520030975342,0.0,523551.0
1.0,50.648433685302734,-14.761494636535645,59.173606872558594,38.381385803222656,0.0,0.0,0.0,-0.0,0.33972081542015076,0.923581600189209,-0.07019025087356567,-1.999060034751892,-1.052940011024475,-4.089680194854736,0.0,523552.0
1.0,42.28371047973633,18.55063819885254,16.219614028930664,12.0385103225708,0.0,0.0,0.0,-0.0,0.33972081542015076,0.923581600189209,-0.07019025087356567,-1.999060034751892,-1.052940011024475,-4.089680194854736,0.0,523553.0
1.0,11.323058128356934,41.91702651977539,-37.765689849853516,-20.77217674255371,0.0,0.0,0.0,-0.0,0.33972081542015076,0.923581600189209,-0.07019025087356567,-1.999060034751892,-1.052940011024475,-4.089680194854736,0.0,523554.0
1.0,-21.646066665649414,43.87140655517578,-62.1733512878418,-31.893836975097656,0.0,0.0,0.0,-0.0,0.33972081542015076,0.923581600189209,-0.07019025087356567,-1.999060034751892,-1.052940011024475,-4.089680194854736,0.0,523555.0
1.0,-41.157711029052734,24.25238800048828,-37.808349609375,-9.605456352233887,0.0,0.0,0.0,-0.0,0.33972081542015076,0.923581600189209,-0.07019025087356567,-1.999060034751892,-1.052940011024475,-4.089680194854736,0.0,523556.0
1.0,-42.54998779296875,-7.240784645080566,13.10562801361084,25.469707489013672,0.0,0.0,0.0,-0.0,0.33972081542015076,0.923581600189209,-0.07019025087356567,-1.999060034751892,-1.052940011024475,-4.089680194854736,0.0,523557.0
1.0,-27.977588653564453,-35.07516860961914,49.32535934448242,41.193885803222656,0.0,0.0,0.0,-0.0,0.33972081542015076,0.923581600189209,-0.07019025087356567,-1.999060034751892,-1.052940011024475,-4.089680194854736,0.0,523558.0
1.0,0.2889377474784851,-44.545066833496094,47.858463287353516,25.481403350830078,0.0,0.0,0.0,-0.0,0.33972081542015076,0.923581600189209,-0.07019025087356567,-1.999060034751892,-1.052940011024475,-4.089680194854736,0.0,523559.0
1.0,35.81879425048828,-30.21405029296875,14.581201553344727,-9.715298652648926,0.0,0.0,0.0,-0.0,0.33972081542015076,0.923581600189209,-0.07019025087356567,-1.999060034751892,-1.052940011024475,-4.089680194854736,0.0,523560.0
1.0,64.34387969970703,0.14854255318641663,-28.874664306640625,-43.981143951416016,0.0,0.0,0.0,-0.0,0.33972081542015076,0.923581600189209,-0.07019025087356567,-1.999060034751892,-1.052940011024475,-4.089680194854736,0.0,523561.0
1.0,68.78482055664062,29.3991641998291,-55.39739990234375,-56.66762924194336,0.0,0.0,0.0,-0.0,0.33203038573265076,0.9185157418251038,-0.06689435988664627,14.817460060119629,-1.2513200044631958,-3.5097999572753906,0.0,523562.0
1.0,39.01921844482422,41.0123176574707,-46.049503326416016,-35.548397064208984,0.0,0.0,0.0,-0.0,0.33203038573265076,0.9185157418251038,-0.06689435988664627,14.817460060119629,-1.2513200044631958,-3.5097999572753906,0.0,523563.0
1.0,-16.740901947021484,29.28693199157715,-3.955655336380005,12.20038890838623,0.0,0.0,0.0,-0.0,0.33203038573265076,0.9185157418251038,-0.06689435988664627,14.817460060119629,-1.2513200044631958,-3.5097999572753906,0.0,523564.0
1.0,-72.02637481689453,1.8604453802108765,47.22325897216797,60.1971549987793,0.0,0.0,0.0,-0.0,0.33203038573265076,0.9185157418251038,-0.06689435988664627,14.817460060119629,-1.2513200044631958,-3.5097999572753906,0.0,523565.0
1.0,-99.92501831054688,-25.983657836914062,73.51817321777344,75.8013916015625,0.0,0.0,0.0,-0.0,0.33203038573265076,0.9185157418251038,-0.06689435988664627,14.817460060119629,-1.2513200044631958,-3.5097999572753906,0.0,523566.0
1.0,-87.68972778320312,-39.38087844848633,52.70964813232422,44.61544418334961,0.0,0.0,0.0,-0.0,0.33203038573265076,0.9185157418251038,-0.06689435988664627,14.817460060119629,-1.2513200044631958,-3.5097999572753906,0.0,523567.0
1.0,-37.3678092956543,-30.943315505981445,-4.417149543762207,-14.99817180633545,0.0,0.0,-0.0,-0.0,0.33203038573265076,0.9185157418251038,-0.06689435988664627,14.817460060119629,-1.2513200044631958,-3.5097999572753906,0.0,523568.0
1.0,33.009124755859375,-4.991193771362305,-62.852561950683594,-67.13072204589844,0.0,0.0,-0.0,-0.0,0.33203038573265076,0.9185157418251038,-0.06689435988664627,14.817460060119629,-1.2513200044631958,-3.5097999572753906,0.0,523569.0
1.0,91.69881439208984,24.04651641845703,-88.24051666259766,-83.24905395507812,0.0,0.0,-0.0,-0.0,0.33203038573265076,0.9185157418251038,-0.06689435988664627,14.817460060119629,-1.2513200044631958,-3.5097999572753906,0.0,523570.0
1.0,113.5210952758789,39.936798095703125,-63.91952133178711,-55.523990631103516,0.0,0.0,-0.0,-0.0,0.33203038573265076,0.9185157418251038,-0.06689435988664627,14.817460060119629,-1.2513200044631958,-3.5097999572753906,0.0,523571.0
1.0,93.29652404785156,34.343414306640625,-0.5042466521263123,2.1356678009033203,0.0,0.0,-0.0,-0.0,0.33508214354515076,0.931699275970459,-0.07330303639173508,9.842700004577637,-0.8392999768257141,-1.999060034751892,0.0,523572.0
1.0,37.570072174072266,10.451992988586426,66.33818054199219,60.85598373413086,0.0,0.0,-0.0,-0.0,0.33508214354515076,0.931699275970459,-0.07330303639173508,9.842700004577637,-0.8392999768257141,-1.999060034751892,0.0,523573.0
1.0,-35.68925094604492,-19.521514892578125,97.4693832397461,90.00971984863281,0.0,0.0,-0.0,-0.0,0.33508214354515076,0.931699275970459,-0.07330303639173508,9.842700004577637,-0.8392999768257141,-1.999060034751892,0.0,523574.0
1.0,-97.43385314941406,-39.727115631103516,77.35721588134766,74.88734436035156,0.0,0.0,-0.0,-0.0,0.33508214354515076,0.931699275970459,-0.07330303639173508,9.842700004577637,-0.8392999768257141,-1.999060034751892,0.0,523575.0
1.0,-121.38639831542969,-38.692962646484375,22.73978042602539,25.804014205932617,0.0,0.0,-0.0,-0.0,0.33508214354515076,0.931699275970459,-0.07330303639173508,9.842700004577637,-0.8392999768257141,-1.999060034751892,0.0,523576.0
1.0,-87.57774353027344,-16.14422607421875,-33.912593841552734,-31.071718215942383,0.0,0.0,-0.0,-0.0,0.33508214354515076,0.931699275970459,-0.07330303639173508,9.842700004577637,-0.8392999768257141,-1.999060034751892,0.0,523577.0
1.0,-3.0416057109832764,16.0108699798584,-68.06021118164062,-69.59844207763672,0.0,0.0,-0.0,-0.0,0.33508214354515076,0.931699275970459,-0.07330303639173508,9.842700004577637,-0.8392999768257141,-1.999060034751892,0.0,523578.0
1.0,76.89356994628906,39.48744583129883,-72.04914093017578,-74.65962219238281,0.0,0.0,-0.0,-0.0,0.33508214354515076,0.931699275970459,-0.07330303639173508,9.842700004577637,-0.8392999768257141,-1.999060034751892,0.0,523579.0
1.0,100.52920532226562,40.886531829833984,-48.86542510986328,-47.972896575927734,0.0,0.0,-0.0,-0.0,0.33508214354515076,0.931699275970459,-0.07330303639173508,9.842700004577637,-0.8392999768257141,-1.999060034751892,0.0,523580.0
1.0,70.35791778564453,19.87903594970703,-7.950745105743408,-5.231669902801514,0.0,0.0,-0.0,-0.0,0.33508214354515076,0.931699275970459,-0.07330303639173508,9.842700004577637,-0.8392999768257141,-1.999060034751892,0.0,523581.0
1.0,12.538135528564453,-12.358455657958984,28.474224090576172,30.36835289001465,0.0,0.0,-0.0,-0.0,0.33703526854515076,0.939389705657959,-0.07611064612865448,2.014319896697998,-3.5403199195861816,-3.2351200580596924,0.0,523582.0
1.0,-52.04329299926758,-39.296958923339844,33.79835510253906,37.15255355834961,0.0,0.0,-0.0,-0.0,0.33703526854515076,0.939389705657959,-0.07611064612865448,2.014319896697998,-3.5403199195861816,-3.2351200580596924,0.0,523583.0
1.0,-94.58370971679688,-45.912437438964844,8.281071662902832,14.701611518859863,0.0,0.0,-0.0,-0.0,0.33703526854515076,0.939389705657959,-0.07611064612865448,2.014319896697998,-3.5403199195861816,-3.2351200580596924,0.0,523584.0
1.0,-82.97596740722656,-26.764575958251953,-17.68258285522461,-12.113981246948242,0.0,0.0,-0.0,-0.0,0.33703526854515076,0.939389705657959,-0.07611064612865448,2.014319896697998,-3.5403199195861816,-3.2351200580596924,0.0,523585.0
1.0,-14.486515998840332,8.90160083770752,-20.13627052307129,-20.22673988342285,0.0,0.0,-0.0,-0.0,0.33703526854515076,0.939389705657959,-0.07611064612865448,2.014319896697998,-3.5403199195861816,-3.2351200580596924,0.0,523586.0
1.0,71.31985473632812,40.926387786865234,-2.7135109901428223,-8.64745044708252,0.0,0.0,-0.0,-0.0,0.33703526854515076,0.939389705657959,-0.07611064612865448,2.014319896697998,-3.5403199195861816,-3.2351200580596924,0.0,523587.0
1.0,118.02101135253906,50.66556167602539,18.525836944580078,10.56433391571045,0.0,0.0,-0.0,-0.0,0.33703526854515076,0.939389705657959,-0.07611064612865448,2.014319896697998,-3.5403199195861816,-3.2351200580596924,0.0,523588.0
1.0,87.86455535888672,32.74308395385742,35.5352783203125,29.156494140625,0.0,0.0,-0.0,-0.0,0.33703526854515076,0.939389705657959,-0.07611064612865448,2.014319896697998,-3.5403199195861816,-3.2351200580596924,0.0,523589.0
1.0,-8.249817848205566,-2.8042750358581543,46.227848052978516,42.162818908691406,0.0,0.0,-0.0,-0.0,0.33703526854515076,0.939389705657959,-0.07611064612865448,2.014319896697998,-3.5403199195861816,-3.2351200580596924,0.0,523590.0
1.0,-103.02845764160156,-36.65729904174805,43.92710876464844,41.20746612548828,0.0,0.0,-0.0,-0.0,0.33703526854515076,0.939389705657959,-0.07611064612865448,2.014319896697998,-3.5403199195861816,-3.2351200580596924,0.0,523591.0
1.0,-124.37454223632812,-50.410823822021484,23.350936889648438,22.095584869384766,0.0,0.0,-0.0,-0.0,0.33380040526390076,0.932736873626709,-0.07794169336557388,12.070659637451172,-1.5260000228881836,0.946120023727417,0.0,523592.0
1.0,-59.89986038208008,-36.868064880371094,-10.489163398742676,-8.799420356750488,0.0,0.0,-0.0,-0.0,0.33380040526390076,0.932736873626709,-0.07794169336557388,12.070659637451172,-1.5260000228881836,0.946120023727417,0.0,523593.0
1.0,43.01517105102539,-3.7736971378326416,-45.951416015625,-40.616573333740234,0.0,0.0,-0.0,-0.0,0.33380040526390076,0.932736873626709,-0.07794169336557388,12.070659637451172,-1.5260000228881836,0.946120023727417,0.0,523594.0
1.0,119.78721618652344,30.93974494934082,-68.34327697753906,-60.79055404663086,0.0,0.0,-0.0,0.0,0.33380040526390076,0.932736873626709,-0.07794169336557388,12.070659637451172,-1.5260000228881836,0.946120023727417,0.0,523595.0
1.0,126.72639465332031,48.62791442871094,-62.03892135620117,-55.769500732421875,0.0,0.0,-0.0,0.0,0.33380040526390076,0.932736873626709,-0.07794169336557388,12.070659637451172,-1.5260000228881836,0.946120023727417,0.0,523596.0
1.0,62.68251037597656,40.03338623046875,-22.532499313354492,-21.942033767700195,0.0,0.0,-0.0,0.0,0.33380040526390076,0.932736873626709,-0.07794169336557388,12.070659637451172,-1.5260000228881836,0.946120023727417,0.0,523597.0
1.0,-32.249935150146484,10.258028030395508,33.641265869140625,26.54106903076172,0.0,0.0,-0.0,0.0,0.33380040526390076,0.932736873626709,-0.07794169336557388,12.070659637451172,-1.5260000228881836,0.946120023727417,0.0,523598.0
1.0,-104.4904556274414,-24.709686279296875,76.09188842773438,65.15646362304688,0.0,0.0,-0.0,0.0,0.33380040526390076,0.932736873626709,-0.07794169336557388,12.070659637451172,-1.5260000228881836,0.946120023727417,0.0,523599.0
1.0,-120.5755386352539,-46.57731246948242,78.80391693115234,72.22843170166016,0.0,0.0,-0.0,0.0,0.33380040526390076,0.932736873626709,-0.07794169336557388,12.070659637451172,-1.5260000228881836,0.946120023727417,0.0,523600.0
1.0,-79.2248764038086,-44.06027603149414,36.44939041137695,40.170780181884766,0.0,0.0,-0.0,0.0,0.33380040526390076,0.932736873626709,-0.07794169336557388,12.070659637451172,-1.5260000228881836,0.946120023727417,0.0,523601.0
1.0,-7.129462718963623,-18.886882781982422,-33.970272064208984,-20.058666229248047,0.0,0.0,-0.0,0.0,0.33489903807640076,0.938596248626709,-0.08282449841499329,7.736820220947266,-1.510740041732788,2.1821799278259277,0.0,523602.0
1.0,53.81074523925781,15.211943626403809,-99.5290298461914,-80.73804473876953,0.0,0.0,-0.0,0.0,0.33489903807640076,0.938596248626709,-0.08282449841499329,7.736820220947266,-1.510740041732788,2.1821799278259277,0.0,523603.0
1.0,72.5636215209961,40.08538055419922,-119.98152923583984,-105.61495208740234,0.0,0.0,-0.0,0.0,0.33489903807640076,0.938596248626709,-0.08282449841499329,7.736820220947266,-1.510740041732788,2.1821799278259277,0.0,523604.0
1.0,50.54734420776367,43.210365295410156,-75.10749816894531,-74.29219055175781,0.0,0.0,-0.0,0.0,0.33489903807640076,0.938596248626709,-0.08282449841499329,7.736820220947266,-1.510740041732788,2.1821799278259277,0.0,523605.0
1.0,12.916397094726562,24.082061767578125,13.337238311767578,-1.5347150564193726,0.0,0.0,-0.0,0.0,0.33489903807640076,0.938596248626709,-0.08282449841499329,7.736820220947266,-1.510740041732788,2.1821799278259277,0.0,523606.0
1.0,-18.767072677612305,-6.572302341461182,98.73053741455078,75.18561553955078,0.0,0.0,-0.0,0.0,0.33489903807640076,0.938596248626709,-0.08282449841499329,7.736820220947266,-1.510740041732788,2.1821799278259277,0.0,523607.0
1.0,-35.557106018066406,-32.51108932495117,138.16290283203125,117.4916763305664,0.0,0.0,-0.0,0.0,0.33489903807640076,0.938596248626709,-0.08282449841499329,7.736820220947266,-1.510740041732788,2.1821799278259277,0.0,523608.0
1.0,-30.78519058227539,-39.97825622558594,111.20391082763672,102.15111541748047,0.0,0.0,-0.0,0.0,0.33489903807640076,0.938596248626709,-0.08282449841499329,7.736820220947266,-1.510740041732788,2.1821799278259277,0.0,523609.0
1.0,-1.3330817222595215,-25.071292877197266,32.91312789916992,37.18594741821289,0.0,0.0,-0.0,0.0,0.33489903807640076,0.938596248626709,-0.08282449841499329,7.736820220947266,-1.510740041732788,2.1821799278259277,0.0,523610.0
1.0,38.78559875488281,3.854454517364502,-53.26425552368164,-39.6502571105957,0.0,0.0,-0.0,0.0,0.33489903807640076,0.938596248626709,-0.08282449841499329,7.736820220947266,-1.510740041732788,2.1821799278259277,0.0,523611.0
1.0,61.925907135009766,30.401897430419922,-102.97386932373047,-86.26589965820312,0.0,0.0,-0.0,0.0,0.33685216307640076,0.9441503882408142,-0.08642555773258209,2.3195199966430664,-0.6104000210762024,1.5565199851989746,0.0,523612.0
1.0,51.02641296386719,39.63245391845703,-94.55528259277344,-81.34981536865234,0.0,0.0,-0.0,0.0,0.33685216307640076,0.9441503882408142,-0.08642555773258209,2.3195199966430664,-0.6104000210762024,1.5565199851989746,0.0,523613.0
1.0,12.611571311950684,27.00509262084961,-38.21745300292969,-34.0457649230957,0.0,0.0,-0.0,0.0,0.33685216307640076,0.9441503882408142,-0.08642555773258209,2.3195199966430664,-0.6104000210762024,1.5565199851989746,0.0,523614.0
1.0,-34.460418701171875,-0.0753726065158844,29.25104331970215,22.2554931640625,0.0,0.0,-0.0,0.0,0.33685216307640076,0.9441503882408142,-0.08642555773258209,2.3195199966430664,-0.6104000210762024,1.5565199851989746,0.0,523615.0
1.0,-71.74190521240234,-27.10051727294922,66.427734375,51.61011505126953,0.0,0.0,-0.0,0.0,0.33685216307640076,0.9441503882408142,-0.08642555773258209,2.3195199966430664,-0.6104000210762024,1.5565199851989746,0.0,523616.0
1.0,-82.69988250732422,-39.47056198120117,54.12135696411133,39.9465446472168,0.0,0.0,-0.0,0.0,0.33685216307640076,0.9441503882408142,-0.08642555773258209,2.3195199966430664,-0.6104000210762024,1.5565199851989746,0.0,523617.0
1.0,-55.58134841918945,-29.933998107910156,4.081264495849609,-0.49274879693984985,0.0,0.0,-0.0,0.0,0.33685216307640076,0.9441503882408142,-0.08642555773258209,2.3195199966430664,-0.6104000210762024,1.5565199851989746,0.0,523618.0
1.0,2.869649887084961,-3.2060165405273438,-52.083370208740234,-44.06514358520508,0.0,0.0,-0.0,0.0,0.33685216307640076,0.9441503882408142,-0.08642555773258209,2.3195199966430664,-0.6104000210762024,1.5565199851989746,0.0,523619.0
1.0,60.72650146484375,25.830406188964844,-78.1005859375,-62.8211784362793,0.0,0.0,-0.0,0.0,0.33685216307640076,0.9441503882408142,-0.08642555773258209,2.3195199966430664,-0.6104000210762024,1.5565199851989746,0.0,523620.0
1.0,82.21337127685547,40.38585662841797,-53.574100494384766,-40.284568786621094,0.0,0.0,-0.0,0.0,0.33685216307640076,0.9441503882408142,-0.08642555773258209,2.3195199966430664,-0.6104000210762024,1.5565199851989746,0.0,523621.0
1.0,57.95518112182617,32.0361213684082,9.790214538574219,14.455954551696777,0.0,0.0,-0.0,0.0,0.33666905760765076,0.931577205657959,-0.08471658080816269,10.7735595703125,-0.015259999781847,0.5188400149345398,0.0,523622.0
1.0,8.307320594787598,5.448917388916016,77.4237060546875,71.98706817626953,0.0,0.0,-0.0,0.0,0.33666905760765076,0.931577205657959,-0.08471658080816269,10.7735595703125,-0.015259999781847,0.5188400149345398,0.0,523623.0
1.0,-40.57865524291992,-25.00889778137207,110.48857116699219,98.7782974243164,0.0,0.0,-0.0,0.0,0.33666905760765076,0.931577205657959,-0.08471658080816269,10.7735595703125,-0.015259999781847,0.5188400149345398,0.0,523624.0
1.0,-72.10868835449219,-42.898380279541016,82.22895812988281,72.70182800292969,0.0,0.0,-0.0,0.0,0.33666905760765076,0.931577205657959,-0.08471658080816269,10.7735595703125,-0.015259999781847,0.5188400149345398,0.0,523625.0
1.0,-71.06080627441406,-38.15068054199219,1.3248097896575928,1.3357523679733276,0.0,0.0,-0.0,0.0,0.33666905760765076,0.931577205657959,-0.08471658080816269,10.7735595703125,-0.015259999781847,0.5188400149345398,0.0,523626.0
1.0,-27.155576705932617,-12.678655624389648,-83.35432434082031,-74.71070861816406,0.0,0.0,-0.0,0.0,0.33666905760765076,0.931577205657959,-0.08471658080816269,10.7735595703125,-0.015259999781847,0.5188400149345398,0.0,523627.0
1.0,40.42695999145508,20.16514015197754,-118.55205535888672,-109.57939147949219,0.0,0.0,-0.0,0.0,0.33666905760765076,0.931577205657959,-0.08471658080816269,10.7735595703125,-0.015259999781847,0.5188400149345398,0.0,523628.0
1.0,89.42622375488281,42.42998123168945,-87.08500671386719,-85.46478271484375,0.0,0.0,-0.0,0.0,0.33666905760765076,0.931577205657959,-0.08471658080816269,10.7735595703125,-0.015259999781847,0.5188400149345398,0.0,523629.0
1.0,92.70931243896484,41.979148864746094,-12.748751640319824,-19.665325164794922,0.0,0.0,-0.0,0.0,0.33666905760765076,0.931577205657959,-0.08471658080816269,10.7735595703125,-0.015259999781847,0.5188400149345398,0.0,523630.0
1.0,47.91205596923828,19.259931564331055,63.40312957763672,52.24044418334961,0.0,0.0,-0.0,0.0,0.33666905760765076,0.931577205657959,-0.08471658080816269,10.7735595703125,-0.015259999781847,0.5188400149345398,0.0,523631.0
1.0,-28.576778411865234,-13.933138847351074,105.58943939208984,95.80945587158203,0.0,0.0,-0.0,0.0,0.33575353026390076,0.931699275970459,-0.08642555773258209,10.025819778442383,0.061039999127388,1.5870399475097656,0.0,523632.0
1.0,-94.16859436035156,-40.36495590209961,95.58686828613281,91.31314086914062,0.0,0.0,-0.0,0.0,0.33575353026390076,0.931699275970459,-0.08642555773258209,10.025819778442383,0.061039999127388,1.5870399475097656,0.0,523633.0
1.0,-103.17008209228516,-45.62686538696289,40.463748931884766,43.00104522705078,0.0,0.0,-0.0,0.0,0.33575353026390076,0.931699275970459,-0.08642555773258209,10.025819778442383,0.061039999127388,1.5870399475097656,0.0,523634.0
1.0,-50.62057876586914,-26.2210750579834,-32.36099624633789,-24.534530639648438,0.0,0.0,-0.0,0.0,0.33575353026390076,0.931699275970459,-0.08642555773258209,10.025819778442383,0.061039999127388,1.5870399475097656,0.0,523635.0
1.0,23.8239688873291,7.928179740905762,-89.66646575927734,-79.42959594726562,0.0,0.0,-0.0,0.0,0.33575353026390076,0.931699275970459,-0.08642555773258209,10.025819778442383,0.061039999127388,1.5870399475097656,0.0,523636.0
1.0,72.27439880371094,38.299312591552734,-104.25372314453125,-94.3942642211914,0.0,0.0,-0.0,0.0,0.33575353026390076,0.931699275970459,-0.08642555773258209,10.025819778442383,0.061039999127388,1.5870399475097656,0.0,523637.0
1.0,76.9392318725586,48.10430908203125,-69.90469360351562,-63.037837982177734,0.0,0.0,-0.0,0.0,0.33575353026390076,0.931699275970459,-0.08642555773258209,10.025819778442383,0.061039999127388,1.5870399475097656,0.0,523638.0
1.0,48.82189178466797,32.314491271972656,-6.882763862609863,-5.689823627471924,0.0,0.0,-0.0,0.0,0.33575353026390076,0.931699275970459,-0.08642555773258209,10.025819778442383,0.061039999127388,1.5870399475097656,0.0,523639.0
1.0,2.267697811126709,0.014454401098191738,56.2420539855957,49.357032775878906,0.0,0.0,-0.0,0.0,0.33575353026390076,0.931699275970459,-0.08642555773258209,10.025819778442383,0.061039999127388,1.5870399475097656,0.0,523640.0
1.0,-41.06922912597656,-31.18838119506836,97.43441772460938,81.97737121582031,0.0,0.0,-0.0,0.0,0.33575353026390076,0.931699275970459,-0.08642555773258209,10.025819778442383,0.061039999127388,1.5870399475097656,0.0,523641.0
1.0,-51.1534309387207,-44.656036376953125,100.74726867675781,81.93387603759766,0.0,0.0,-0.0,0.0,0.34075841307640076,0.932919979095459,-0.08874489367008209,5.2799601554870605,0.7477399706840515,0.4730600118637085,0.0,523642.0
1.0,-25.695402145385742,-33.87163543701172,58.51531219482422,47.879310607910156,0.0,0.0,-0.0,0.0,0.34075841307640076,0.932919979095459,-0.08874489367008209,5.2799601554870605,0.7477399706840515,0.4730600118637085,0.0,523643.0
1.0,1.3209680318832397,-5.562497615814209,-21.548114776611328,-13.937630653381348,0.0,0.0,-0.0,0.0,0.34075841307640076,0.932919979095459,-0.08874489367008209,5.2799601554870605,0.7477399706840515,0.4730600118637085,0.0,523644.0
1.0,2.5161585807800293,24.7391357421875,-108.6750259399414,-83.31351470947266,0.0,0.0,-0.0,0.0,0.34075841307640076,0.932919979095459,-0.08874489367008209,5.2799601554870605,0.7477399706840515,0.4730600118637085,0.0,523645.0
1.0,-14.816545486450195,41.011070251464844,-152.55477905273438,-121.80113220214844,0.0,0.0,-0.0,0.0,0.34075841307640076,0.932919979095459,-0.08874489367008209,5.2799601554870605,0.7477399706840515,0.4730600118637085,0.0,523646.0
1.0,-25.515111923217773,35.09333038330078,-115.4903335571289,-96.42630767822266,0.0,0.0,-0.0,0.0,0.34075841307640076,0.932919979095459,-0.08874489367008209,5.2799601554870605,0.7477399706840515,0.4730600118637085,0.0,523647.0
1.0,-14.609725952148438,10.708901405334473,-7.4322967529296875,-11.546159744262695,0.0,0.0,0.0,0.0,0.34075841307640076,0.932919979095459,-0.08874489367008209,5.2799601554870605,0.7477399706840515,0.4730600118637085,0.0,523648.0
1.0,14.208288192749023,-19.011377334594727,116.59504699707031,89.79606628417969,0.0,0.0,0.0,0.0,0.34075841307640076,0.932919979095459,-0.08874489367008209,5.2799601554870605,0.7477399706840515,0.4730600118637085,0.0,523649.0
1.0,43.69828796386719,-38.42442321777344,187.39031982421875,150.28880310058594,0.0,0.0,0.0,0.0,0.34075841307640076,0.932919979095459,-0.08874489367008209,5.2799601554870605,0.7477399706840515,0.4730600118637085,0.0,523650.0
1.0,52.36594772338867,-37.46758270263672,160.3144073486328,131.4920654296875,0.0,0.0,0.0,0.0,0.34075841307640076,0.932919979095459,-0.08874489367008209,5.2799601554870605,0.7477399706840515,0.4730600118637085,0.0,523651.0
1.0,35.64326858520508,-16.643754959106445,48.97156524658203,42.83422088623047,0.0,0.0,0.0,0.0,0.33990392088890076,0.930905818939209,-0.0907590463757515,4.516960144042969,2.044840097427368,-0.4578000009059906,0.0,523652.0
1.0,12.682573318481445,13.12840747833252,-81.44479370117188,-63.5203742980957,0.0,0.0,0.0,0.0,0.33990392088890076,0.930905818939209,-0.0907590463757515,4.516960144042969,2.044840097427368,-0.4578000009059906,0.0,523653.0
1.0,-3.1834537982940674,35.42412185668945,-162.4271697998047,-131.49948120117188,0.0,0.0,0.0,0.0,0.33990392088890076,0.930905818939209,-0.0907590463757515,4.516960144042969,2.044840097427368,-0.4578000009059906,0.0,523654.0
1.0,-20.93381118774414,37.894290924072266,-162.099609375,-132.94210815429688,0.0,0.0,0.0,0.0,0.33990392088890076,0.930905818939209,-0.0907590463757515,4.516960144042969,2.044840097427368,-0.4578000009059906,0.0,523655.0
1.0,-45.55665969848633,19.998397827148438,-91.22618103027344,-74.48687744140625,0.0,0.0,0.0,0.0,0.33990392088890076,0.930905818939209,-0.0907590463757515,4.516960144042969,2.044840097427368,-0.4578000009059906,0.0,523656.0
1.0,-60.442623138427734,-8.120894432067871,13.22429084777832,12.344158172607422,0.0,0.0,0.0,0.0,0.33990392088890076,0.930905818939209,-0.0907590463757515,4.516960144042969,2.044840097427368,-0.4578000009059906,0.0,523657.0
1.0,-49.01406478881836,-31.899967193603516,104.77827453613281,86.02146911621094,0.0,0.0,0.0,0.0,0.33990392088890076,0.930905818939209,-0.0907590463757515,4.516960144042969,2.044840097427368,-0.4578000009059906,0.0,523658.0
1.0,-14.413177490234375,-38.983734130859375,139.8728790283203,111.0128173828125,0.0,0.0,0.0,0.0,0.33990392088890076,0.930905818939209,-0.0907590463757515,4.516960144042969,2.044840097427368,-0.4578000009059906,0.0,523659.0
1.0,25.39451789855957,-25.257326126098633,100.78797912597656,77.61339569091797,0.0,0.0,0.0,0.0,0.33990392088890076,0.930905818939209,-0.0907590463757515,4.516960144042969,2.044840097427368,-0.4578000009059906,0.0,523660.0
1.0,51.062835693359375,2.3411033153533936,12.648998260498047,8.861605644226074,0.0,0.0,0.0,0.0,0.33990392088890076,0.930905818939209,-0.0907590463757515,4.516960144042969,2.044840097427368,-0.4578000009059906,0.0,523661.0
1.0,55.12737274169922,28.664865493774414,-72.05718231201172,-56.241180419921875,0.0,0.0,0.0,0.0,0.33996495604515076,0.931821346282959,-0.0895993784070015,1.6785999536514282,2.365299940109253,-1.3733999729156494,0.0,523662.0
1.0,42.36431121826172,38.80176544189453,-106.54312896728516,-83.89029693603516,0.0,0.0,0.0,0.0,0.33996495604515076,0.931821346282959,-0.0895993784070015,1.6785999536514282,2.365299940109253,-1.3733999729156494,0.0,523663.0
1.0,18.705934524536133,27.385515213012695,-73.69784545898438,-59.26211929321289,0.0,0.0,0.0,0.0,0.33996495604515076,0.931821346282959,-0.0895993784070015,1.6785999536514282,2.365299940109253,-1.3733999729156494,0.0,523664.0
1.0,-9.088469505310059,1.592451810836792,8.708372116088867,6.309689521789551,0.0,0.0,0.0,0.0,0.33996495604515076,0.931821346282959,-0.0895993784070015,1.6785999536514282,2.365299940109253,-1.3733999729156494,0.0,523665.0
1.0,-28.891279220581055,-23.78740882873535,97.38772583007812,79.05049133300781,0.0,0.0,0.0,0.0,0.33996495604515076,0.931821346282959,-0.0895993784070015,1.6785999536514282,2.365299940109253,-1.3733999729156494,0.0,523666.0
1.0,-33.76567077636719,-35.29856872558594,134.31365966796875,112.3194580078125,0.0,0.0,0.0,0.0,0.33996495604515076,0.931821346282959,-0.0895993784070015,1.6785999536514282,2.365299940109253,-1.3733999729156494,0.0,523667.0
1.0,-31.295089721679688,-27.992586135864258,73.98419952392578,67.48513793945312,0.0,0.0,0.0,0.0,0.33996495604515076,0.931821346282959,-0.0895993784070015,1.6785999536514282,2.365299940109253,-1.3733999729156494,0.0,523668.0
1.0,-29.20781135559082,-6.487624645233154,-63.37936019897461,-44.55049133300781,0.0,0.0,0.0,0.0,0.33996495604515076,0.931821346282959,-0.0895993784070015,1.6785999536514282,2.365299940109253,-1.3733999729156494,0.0,523669.0
1.0,-19.891754150390625,18.220123291015625,-184.24131774902344,-151.23690795898438,0.0,0.0,0.0,0.0,0.33996495604515076,0.931821346282959,-0.0895993784070015,1.6785999536514282,2.365299940109253,-1.3733999729156494,0.0,523670.0
1.0,5.254602432250977,33.344722747802734,-197.79933166503906,-173.8946533203125,0.0,0.0,0.0,0.0,0.33996495604515076,0.931821346282959,-0.0895993784070015,1.6785999536514282,2.365299940109253,-1.3733999729156494,0.0,523671.0
1.0,34.50199508666992,30.54277992248535,-91.8749771118164,-93.138427734375,0.0,0.0,0.0,0.0,0.33996495604515076,0.932675838470459,-0.08612038195133209,-2.4416000843048096,0.5340999960899353,-2.304260015487671,0.0,523672.0
1.0,46.303890228271484,10.92623233795166,66.85179138183594,42.06318664550781,0.0,0.0,0.0,0.0,0.33996495604515076,0.932675838470459,-0.08612038195133209,-2.4416000843048096,0.5340999960899353,-2.304260015487671,0.0,523673.0
1.0,32.34885787963867,-14.949532508850098,189.93434143066406,156.88186645507812,0.0,0.0,0.0,0.0,0.33996495604515076,0.932675838470459,-0.08612038195133209,-2.4416000843048096,0.5340999960899353,-2.304260015487671,0.0,523674.0
1.0,0.7674911618232727,-32.35570526123047,218.68209838867188,194.89230346679688,0.0,0.0,0.0,0.0,0.33996495604515076,0.932675838470459,-0.08612038195133209,-2.4416000843048096,0.5340999960899353,-2.304260015487671,0.0,523675.0
1.0,-29.097137451171875,-30.9924373626709,143.28512573242188,138.6175994873047,0.0,0.0,0.0,0.0,0.33996495604515076,0.932675838470459,-0.08612038195133209,-2.4416000843048096,0.5340999960899353,-2.304260015487671,0.0,523676.0
1.0,-34.35930633544922,-11.419493675231934,4.445284366607666,17.4617919921875,0.0,0.0,0.0,-0.0,0.33996495604515076,0.932675838470459,-0.08612038195133209,-2.4416000843048096,0.5340999960899353,-2.304260015487671,0.0,523677.0
1.0,-9.238189697265625,15.200637817382812,-125.04458618164062,-103.34294891357422,0.0,0.0,0.0,-0.0,0.33996495604515076,0.932675838470459,-0.08612038195133209,-2.4416000843048096,0.5340999960899353,-2.304260015487671,0.0,523678.0
1.0,23.470184326171875,33.20903778076172,-182.36119079589844,-162.21881103515625,0.0,0.0,0.0,-0.0,0.33996495604515076,0.932675838470459,-0.08612038195133209,-2.4416000843048096,0.5340999960899353,-2.304260015487671,0.0,523679.0
1.0,33.70541000366211,31.811052322387695,-148.47161865234375,-137.19166564941406,0.0,0.0,0.0,-0.0,0.33996495604515076,0.932675838470459,-0.08612038195133209,-2.4416000843048096,0.5340999960899353,-2.304260015487671,0.0,523680.0
1.0,14.845710754394531,11.865823745727539,-47.97990036010742,-48.17190933227539,0.0,0.0,0.0,-0.0,0.33996495604515076,0.932675838470459,-0.08612038195133209,-2.4416000843048096,0.5340999960899353,-2.304260015487671,0.0,523681.0
1.0,-14.013127326965332,-15.461166381835938,66.73625183105469,56.84669494628906,0.0,0.0,0.0,-0.0,0.33868321776390076,0.924436092376709,-0.08209207653999329,0.9308599829673767,0.2136400043964386,-4.227019786834717,0.0,523682.0
1.0,-34.35338592529297,-35.608741760253906,131.8335723876953,118.00897216796875,0.0,0.0,0.0,-0.0,0.33868321776390076,0.924436092376709,-0.08209207653999329,0.9308599829673767,0.2136400043964386,-4.227019786834717,0.0,523683.0
1.0,-43.312767028808594,-37.74648666381836,109.87004089355469,100.45936584472656,0.0,0.0,0.0,-0.0,0.33868321776390076,0.924436092376709,-0.08209207653999329,0.9308599829673767,0.2136400043964386,-4.227019786834717,0.0,523684.0
1.0,-39.73780059814453,-19.791950225830078,23.550851821899414,23.883686065673828,0.0,0.0,0.0,-0.0,0.33868321776390076,0.924436092376709,-0.08209207653999329,0.9308599829673767,0.2136400043964386,-4.227019786834717,0.0,523685.0
1.0,-15.16634464263916,10.02782917022705,-67.41133117675781,-59.502784729003906,0.0,0.0,0.0,-0.0,0.33868321776390076,0.924436092376709,-0.08209207653999329,0.9308599829673767,0.2136400043964386,-4.227019786834717,0.0,523686.0
1.0,28.019371032714844,36.332122802734375,-111.26139831542969,-103.04989624023438,0.0,0.0,0.0,-0.0,0.33868321776390076,0.924436092376709,-0.08209207653999329,0.9308599829673767,0.2136400043964386,-4.227019786834717,0.0,523687.0
1.0,65.42047119140625,44.72052764892578,-85.85368347167969,-83.8755111694336,0.0,0.0,0.0,-0.0,0.33868321776390076,0.924436092376709,-0.08209207653999329,0.9308599829673767,0.2136400043964386,-4.227019786834717,0.0,523688.0
1.0,72.46358489990234,30.4984130859375,-5.738190650939941,-11.787211418151855,0.0,0.0,0.0,-0.0,0.33868321776390076,0.924436092376709,-0.08209207653999329,0.9308599829673767,0.2136400043964386,-4.227019786834717,0.0,523689.0
1.0,45.56572723388672,1.004034161567688,85.86219787597656,74.5763168334961,0.0,0.0,0.0,-0.0,0.33868321776390076,0.924436092376709,-0.08209207653999329,0.9308599829673767,0.2136400043964386,-4.227019786834717,0.0,523690.0
1.0,-2.740598678588867,-28.972761154174805,136.613037109375,125.5589599609375,0.0,0.0,0.0,-0.0,0.33868321776390076,0.924436092376709,-0.08209207653999329,0.9308599829673767,0.2136400043964386,-4.227019786834717,0.0,523691.0
1.0,-53.72697448730469,-44.536258697509766,108.9864730834961,105.07738494873047,0.0,0.0,0.0,-0.0,0.33697423338890076,0.923154354095459,-0.07861308008432388,5.44782018661499,0.6256600022315979,-4.272799968719482,0.0,523692.0
1.0,-84.84844207763672,-37.75600051879883,9.644308090209961,17.889440536499023,0.0,0.0,0.0,-0.0,0.33697423338890076,0.923154354095459,-0.07861308008432388,5.44782018661499,0.6256600022315979,-4.272799968719482,0.0,523693.0
1.0,-78.75513458251953,-11.647584915161133,-105.24546813964844,-86.01443481445312,0.0,0.0,0.0,-0.0,0.33697423338890076,0.923154354095459,-0.07861308008432388,5.44782018661499,0.6256600022315979,-4.272799968719482,0.0,523694.0
1.0,-37.623538970947266,20.55971336364746,-167.09002685546875,-145.01527404785156,0.0,0.0,0.0,-0.0,0.33697423338890076,0.923154354095459,-0.07861308008432388,5.44782018661499,0.6256600022315979,-4.272799968719482,0.0,523695.0
1.0,19.283096313476562,41.56516647338867,-138.9309844970703,-126.30491638183594,0.0,0.0,0.0,-0.0,0.33697423338890076,0.923154354095459,-0.07861308008432388,5.44782018661499,0.6256600022315979,-4.272799968719482,0.0,523696.0
1.0,69.14546203613281,40.11760711669922,-32.472328186035156,-38.891456604003906,0.0,0.0,0.0,-0.0,0.33697423338890076,0.923154354095459,-0.07861308008432388,5.44782018661499,0.6256600022315979,-4.272799968719482,0.0,523697.0
1.0,90.38353729248047,17.637178421020508,100.63233184814453,75.93684387207031,0.0,0.0,0.0,-0.0,0.33697423338890076,0.923154354095459,-0.07861308008432388,5.44782018661499,0.6256600022315979,-4.272799968719482,0.0,523698.0
1.0,70.35005187988281,-13.682535171508789,188.92535400390625,157.7329864501953,0.0,0.0,0.0,-0.0,0.33697423338890076,0.923154354095459,-0.07861308008432388,5.44782018661499,0.6256600022315979,-4.272799968719482,0.0,523699.0
1.0,19.134164810180664,-37.670753479003906,174.11302185058594,152.58070373535156,0.0,0.0,0.0,-0.0,0.33697423338890076,0.923154354095459,-0.07861308008432388,5.44782018661499,0.6256600022315979,-4.272799968719482,0.0,523700.0
1.0,-36.375221252441406,-41.944820404052734,55.37029266357422,55.596954345703125,0.0,0.0,0.0,-0.0,0.33697423338890076,0.923154354095459,-0.07861308008432388,5.44782018661499,0.6256600022315979,-4.272799968719482,0.0,523701.0
1.0,-71.26264953613281,-24.10118293762207,-98.13190460205078,-75.31494903564453,0.0,0.0,0.0,-0.0,0.33770665526390076,0.924680233001709,-0.07873515039682388,5.585159778594971,-1.8617199659347534,-5.798799991607666,0.0,523702.0
1.0,-68.7566146850586,6.709232807159424,-192.71505737304688,-159.85650634765625,0.0,0.0,0.0,-0.0,0.33770665526390076,0.924680233001709,-0.07873515039682388,5.585159778594971,-1.8617199659347534,-5.798799991607666,0.0,523703.0
1.0,-27.33713722229004,34.11251449584961,-174.45452880859375,-150.3146209716797,0.0,0.0,0.0,-0.0,0.33770665526390076,0.924680233001709,-0.07873515039682388,5.585159778594971,-1.8617199659347534,-5.798799991607666,0.0,523704.0
1.0,29.85923194885254,43.55165100097656,-61.743865966796875,-58.742549896240234,0.0,0.0,0.0,-0.0,0.33770665526390076,0.924680233001709,-0.07873515039682388,5.585159778594971,-1.8617199659347534,-5.798799991607666,0.0,523705.0
1.0,66.67659759521484,30.17510986328125,74.85881042480469,58.32101821899414,0.0,0.0,0.0,-0.0,0.33770665526390076,0.924680233001709,-0.07873515039682388,5.585159778594971,-1.8617199659347534,-5.798799991607666,0.0,523706.0
1.0,55.23019790649414,0.5531086921691895,162.8416290283203,139.41854858398438,0.0,0.0,0.0,-0.0,0.33770665526390076,0.924680233001709,-0.07873515039682388,5.585159778594971,-1.8617199659347534,-5.798799991607666,0.0,523707.0
1.0,-4.497134208679199,-30.30591583251953,163.57115173339844,146.8692169189453,0.0,0.0,0.0,-0.0,0.33770665526390076,0.924680233001709,-0.07873515039682388,5.585159778594971,-1.8617199659347534,-5.798799991607666,0.0,523708.0
1.0,-71.58191680908203,-45.64997482299805,82.9433822631836,79.22649383544922,0.0,0.0,0.0,-0.0,0.33770665526390076,0.924680233001709,-0.07873515039682388,5.585159778594971,-1.8617199659347534,-5.798799991607666,0.0,523709.0
1.0,-89.45199584960938,-36.29450607299805,-34.06142807006836,-26.768661499023438,0.0,0.0,0.0,-0.0,0.33770665526390076,0.924680233001709,-0.07873515039682388,5.585159778594971,-1.8617199659347534,-5.798799991607666,0.0,523710.0
1.0,-38.47359085083008,-6.861363887786865,-125.77420806884766,-113.66838836669922,0.0,0.0,0.0,-0.0,0.33770665526390076,0.924680233001709,-0.07873515039682388,5.585159778594971,-1.8617199659347534,-5.798799991607666,0.0,523711.0
1.0,46.22600555419922,25.981048583984375,-143.930419921875,-133.8513946533203,0.0,0.0,0.0,-0.0,0.33508214354515076,0.934323787689209,-0.07623271644115448,7.675779819488525,-2.1821799278259277,-2.1669199466705322,0.0,523712.0
1.0,110.21148681640625,43.509212493896484,-80.15245056152344,-77.65106201171875,0.0,0.0,0.0,-0.0,0.33508214354515076,0.934323787689209,-0.07623271644115448,7.675779819488525,-2.1821799278259277,-2.1669199466705322,0.0,523713.0
1.0,118.58135986328125,36.455692291259766,21.545270919799805,15.496417045593262,0.0,0.0,0.0,-0.0,0.33508214354515076,0.934323787689209,-0.07623271644115448,7.675779819488525,-2.1821799278259277,-2.1669199466705322,0.0,523714.0
1.0,60.85856628417969,9.349947929382324,91.03580474853516,82.6197738647461,0.0,0.0,0.0,-0.0,0.33508214354515076,0.934323787689209,-0.07623271644115448,7.675779819488525,-2.1821799278259277,-2.1669199466705322,0.0,523715.0
1.0,-46.44459915161133,-22.698514938354492,89.36071014404297,86.71737670898438,0.0,0.0,0.0,-0.0,0.33508214354515076,0.934323787689209,-0.07623271644115448,7.675779819488525,-2.1821799278259277,-2.1669199466705322,0.0,523716.0
1.0,-146.2014617919922,-41.556983947753906,35.335548400878906,40.18580627441406,0.0,0.0,0.0,-0.0,0.33508214354515076,0.934323787689209,-0.07623271644115448,7.675779819488525,-2.1821799278259277,-2.1669199466705322,0.0,523717.0
1.0,-167.17269897460938,-36.126827239990234,-26.61440658569336,-19.011056900024414,0.0,0.0,0.0,-0.0,0.33508214354515076,0.934323787689209,-0.07623271644115448,7.675779819488525,-2.1821799278259277,-2.1669199466705322,0.0,523718.0
1.0,-88.46843719482422,-9.398884773254395,-64.4190673828125,-59.20001983642578,0.0,0.0,0.0,-0.0,0.33508214354515076,0.934323787689209,-0.07623271644115448,7.675779819488525,-2.1821799278259277,-2.1669199466705322,0.0,523719.0
1.0,39.28363037109375,22.99270248413086,-63.79644775390625,-63.5030517578125,0.0,0.0,0.0,-0.0,0.33508214354515076,0.934323787689209,-0.07623271644115448,7.675779819488525,-2.1821799278259277,-2.1669199466705322,0.0,523720.0
1.0,137.65098571777344,42.20505905151367,-27.15541648864746,-31.88266372680664,0.0,0.0,0.0,-0.0,0.33508214354515076,0.934323787689209,-0.07623271644115448,7.675779819488525,-2.1821799278259277,-2.1669199466705322,0.0,523721.0
1.0,152.32516479492188,37.636592864990234,24.046072006225586,16.99045753479004,0.0,0.0,0.0,-0.0,0.33538731932640076,0.942929744720459,-0.07611064612865448,8.072540283203125,-1.388659954071045,-0.122079998254776,0.0,523722.0
1.0,80.91651153564453,12.382715225219727,62.4395637512207,57.24032211303711,0.0,0.0,0.0,-0.0,0.33538731932640076,0.942929744720459,-0.07611064612865448,8.072540283203125,-1.388659954071045,-0.122079998254776,0.0,523723.0
1.0,-25.482633590698242,-19.45891761779785,72.80713653564453,71.19141387939453,0.0,0.0,0.0,-0.0,0.33538731932640076,0.942929744720459,-0.07611064612865448,8.072540283203125,-1.388659954071045,-0.122079998254776,0.0,523724.0
1.0,-96.41520690917969,-40.25812911987305,53.664398193359375,53.99696350097656,0.0,0.0,0.0,-0.0,0.33538731932640076,0.942929744720459,-0.07611064612865448,8.072540283203125,-1.388659954071045,-0.122079998254776,0.0,523725.0
1.0,-95.53812408447266,-38.450260162353516,10.709633827209473,11.761934280395508,0.0,0.0,0.0,-0.0,0.33538731932640076,0.942929744720459,-0.07611064612865448,8.072540283203125,-1.388659954071045,-0.122079998254776,0.0,523726.0
1.0,-39.289424896240234,-15.239449501037598,-42.435298919677734,-39.43931579589844,0.0,0.0,0.0,-0.0,0.33538731932640076,0.942929744720459,-0.07611064612865448,8.072540283203125,-1.388659954071045,-0.122079998254776,0.0,523727.0
1.0,29.288352966308594,16.353748321533203,-81.04106140136719,-75.19644165039062,0.0,0.0,0.0,-0.0,0.33538731932640076,0.942929744720459,-0.07611064612865448,8.072540283203125,-1.388659954071045,-0.122079998254776,0.0,523728.0
1.0,70.4321517944336,38.759864807128906,-80.04114532470703,-73.79480743408203,0.0,0.0,0.0,-0.0,0.33538731932640076,0.942929744720459,-0.07611064612865448,8.072540283203125,-1.388659954071045,-0.122079998254776,0.0,523729.0
1.0,65.7473373413086,39.766014099121094,-36.74287033081055,-34.648681640625,0.0,0.0,-0.0,-0.0,0.33538731932640076,0.942929744720459,-0.07611064612865448,8.072540283203125,-1.388659954071045,-0.122079998254776,0.0,523730.0
1.0,21.846105575561523,19.20709991455078,24.348276138305664,19.57769775390625,0.0,0.0,-0.0,-0.0,0.33538731932640076,0.942929744720459,-0.07611064612865448,8.072540283203125,-1.388659954071045,-0.122079998254776,0.0,523731.0
1.0,-38.85378646850586,-11.921546936035156,70.99932098388672,60.81591796875,0.0,0.0,-0.0,-0.0,0.33471593260765076,0.942197322845459,-0.08013895153999329,7.721560001373291,-0.091559998691082,1.6480799913406372,0.0,523732.0
1.0,-81.91922760009766,-37.22095489501953,79.6837387084961,69.08482360839844,0.0,0.0,-0.0,-0.0,0.33471593260765076,0.942197322845459,-0.08013895153999329,7.721560001373291,-0.091559998691082,1.6480799913406372,0.0,523733.0
1.0,-74.45014953613281,-42.81254959106445,45.14992904663086,40.023773193359375,0.0,0.0,-0.0,-0.0,0.33471593260765076,0.942197322845459,-0.08013895153999329,7.721560001373291,-0.091559998691082,1.6480799913406372,0.0,523734.0
1.0,-18.771854400634766,-25.260639190673828,-13.95618724822998,-9.938632011413574,0.0,0.0,-0.0,-0.0,0.33471593260765076,0.942197322845459,-0.08013895153999329,7.721560001373291,-0.091559998691082,1.6480799913406372,0.0,523735.0
1.0,44.19799041748047,5.947656154632568,-66.06071472167969,-53.29234313964844,0.0,0.0,-0.0,-0.0,0.33471593260765076,0.942197322845459,-0.08013895153999329,7.721560001373291,-0.091559998691082,1.6480799913406372,0.0,523736.0
1.0,75.84764099121094,33.6146354675293,-85.63143920898438,-68.989501953125,0.0,0.0,-0.0,-0.0,0.33471593260765076,0.942197322845459,-0.08013895153999329,7.721560001373291,-0.091559998691082,1.6480799913406372,0.0,523737.0
1.0,65.08429718017578,42.69615173339844,-63.51163101196289,-50.76198959350586,0.0,0.0,-0.0,-0.0,0.33471593260765076,0.942197322845459,-0.08013895153999329,7.721560001373291,-0.091559998691082,1.6480799913406372,0.0,523738.0
1.0,22.081790924072266,28.764705657958984,-7.187993049621582,-5.331844806671143,0.0,0.0,-0.0,-0.0,0.33471593260765076,0.942197322845459,-0.08013895153999329,7.721560001373291,-0.091559998691082,1.6480799913406372,0.0,523739.0
1.0,-26.199565887451172,-0.38967815041542053,61.827064514160156,49.71171188354492,0.0,0.0,-0.0,-0.0,0.33471593260765076,0.942197322845459,-0.08013895153999329,7.721560001373291,-0.091559998691082,1.6480799913406372,0.0,523740.0
1.0,-50.71338653564453,-29.37751007080078,108.96730041503906,86.4847183227539,0.0,0.0,-0.0,-0.0,0.33471593260765076,0.942197322845459,-0.08013895153999329,7.721560001373291,-0.091559998691082,1.6480799913406372,0.0,523741.0
1.0,-46.42074966430664,-42.79441452026367,99.2507095336914,78.20771026611328,0.0,0.0,-0.0,-0.0,0.33355626463890076,0.934689998626709,-0.08300759643316269,8.835539817810059,-0.3357200026512146,1.6328200101852417,0.0,523742.0
1.0,-27.668745040893555,-33.22330093383789,27.750011444091797,22.05304718017578,0.0,0.0,-0.0,-0.0,0.33355626463890076,0.934689998626709,-0.08300759643316269,8.835539817810059,-0.3357200026512146,1.6328200101852417,0.0,523743.0
1.0,-4.200431823730469,-5.415677070617676,-64.66788482666016,-50.68510437011719,0.0,0.0,-0.0,-0.0,0.33355626463890076,0.934689998626709,-0.08300759643316269,8.835539817810059,-0.3357200026512146,1.6328200101852417,0.0,523744.0
1.0,21.652841567993164,25.896806716918945,-119.2275390625,-94.97908782958984,0.0,0.0,-0.0,-0.0,0.33355626463890076,0.934689998626709,-0.08300759643316269,8.835539817810059,-0.3357200026512146,1.6328200101852417,0.0,523745.0
1.0,42.1753044128418,43.51219177246094,-105.77236938476562,-86.28266906738281,0.0,0.0,-0.0,-0.0,0.33355626463890076,0.934689998626709,-0.08300759643316269,8.835539817810059,-0.3357200026512146,1.6328200101852417,0.0,523746.0
1.0,41.943389892578125,37.56707763671875,-40.217681884765625,-34.984230041503906,0.0,0.0,-0.0,-0.0,0.33355626463890076,0.934689998626709,-0.08300759643316269,8.835539817810059,-0.3357200026512146,1.6328200101852417,0.0,523747.0
1.0,13.909234046936035,11.406684875488281,37.567073822021484,28.89686393737793,0.0,0.0,-0.0,-0.0,0.33355626463890076,0.934689998626709,-0.08300759643316269,8.835539817810059,-0.3357200026512146,1.6328200101852417,0.0,523748.0
1.0,-27.04841423034668,-20.79018783569336,91.55314636230469,76.09561157226562,0.0,0.0,-0.0,-0.0,0.33355626463890076,0.934689998626709,-0.08300759643316269,8.835539817810059,-0.3357200026512146,1.6328200101852417,0.0,523749.0
1.0,-53.04936981201172,-41.8825569152832,101.24090576171875,87.13225555419922,0.0,0.0,-0.0,-0.0,0.33355626463890076,0.934689998626709,-0.08300759643316269,8.835539817810059,-0.3357200026512146,1.6328200101852417,0.0,523750.0
1.0,-42.861045837402344,-40.5044059753418,66.90967559814453,58.9454460144043,0.0,0.0,-0.0,-0.0,0.33355626463890076,0.934689998626709,-0.08300759643316269,8.835539817810059,-0.3357200026512146,1.6328200101852417,0.0,523751.0
1.0,2.440471649169922,-17.12580680847168,7.192831039428711,5.977651596069336,0.0,0.0,-0.0,-0.0,0.33709630370140076,0.927060604095459,-0.0917356014251709,12.74209976196289,1.7091200351715088,0.122079998254776,0.0,523752.0
1.0,54.825069427490234,15.689736366271973,-52.68392562866211,-48.723350524902344,0.0,0.0,-0.0,-0.0,0.33709630370140076,0.927060604095459,-0.0917356014251709,12.74209976196289,1.7091200351715088,0.122079998254776,0.0,523753.0
1.0,76.13760375976562,39.96315002441406,-88.56938171386719,-81.34845733642578,0.0,0.0,-0.0,-0.0,0.33709630370140076,0.927060604095459,-0.0917356014251709,12.74209976196289,1.7091200351715088,0.122079998254776,0.0,523754.0
1.0,47.908817291259766,42.76041793823242,-82.92738342285156,-74.73762512207031,0.0,0.0,-0.0,-0.0,0.33709630370140076,0.927060604095459,-0.0917356014251709,12.74209976196289,1.7091200351715088,0.122079998254776,0.0,523755.0
1.0,-12.419227600097656,23.0861873626709,-34.0203742980957,-28.08137321472168,0.0,0.0,-0.0,-0.0,0.33709630370140076,0.927060604095459,-0.0917356014251709,12.74209976196289,1.7091200351715088,0.122079998254776,0.0,523756.0
1.0,-63.42980194091797,-8.533842086791992,37.9638671875,38.31639099121094,0.0,0.0,-0.0,0.0,0.33709630370140076,0.927060604095459,-0.0917356014251709,12.74209976196289,1.7091200351715088,0.122079998254776,0.0,523757.0
1.0,-73.43807220458984,-35.57698440551758,93.2019271850586,87.15782165527344,0.0,0.0,-0.0,0.0,0.33709630370140076,0.927060604095459,-0.0917356014251709,12.74209976196289,1.7091200351715088,0.122079998254776,0.0,523758.0
1.0,-45.86899948120117,-44.00529098510742,91.83236694335938,83.36453247070312,0.0,0.0,-0.0,0.0,0.33709630370140076,0.927060604095459,-0.0917356014251709,12.74209976196289,1.7091200351715088,0.122079998254776,0.0,523759.0
1.0,-6.036473751068115,-29.692380905151367,25.877994537353516,21.91872787475586,0.0,0.0,-0.0,0.0,0.33709630370140076,0.927060604095459,-0.0917356014251709,12.74209976196289,1.7091200351715088,0.122079998254776,0.0,523760.0
1.0,27.86088752746582,-0.35561609268188477,-66.68587493896484,-61.741336822509766,0.0,0.0,-0.0,0.0,0.33709630370140076,0.927060604095459,-0.0917356014251709,12.74209976196289,1.7091200351715088,0.122079998254776,0.0,523761.0
1.0,47.32170486450195,28.170103073120117,-122.10284423828125,-110.35405731201172,0.0,0.0,-0.0,0.0,0.33856114745140076,0.934934139251709,-0.0943601131439209,8.866060256958008,1.846459984779358,1.999060034751892,0.0,523762.0
1.0,44.75381088256836,40.416725158691406,-96.20530700683594,-85.0651626586914,0.0,0.0,-0.0,0.0,0.33856114745140076,0.934934139251709,-0.0943601131439209,8.866060256958008,1.846459984779358,1.999060034751892,0.0,523763.0
1.0,20.926136016845703,30.137754440307617,-3.1502623558044434,0.07759656012058258,0.0,0.0,-0.0,0.0,0.33856114745140076,0.934934139251709,-0.0943601131439209,8.866060256958008,1.846459984779358,1.999060034751892,0.0,523764.0
1.0,-13.230297088623047,3.1577792167663574,91.95890045166016,85.53033447265625,0.0,0.0,-0.0,0.0,0.33856114745140076,0.934934139251709,-0.0943601131439209,8.866060256958008,1.846459984779358,1.999060034751892,0.0,523765.0
1.0,-46.476768493652344,-25.660078048706055,124.42457580566406,112.68144226074219,0.0,0.0,-0.0,0.0,0.33856114745140076,0.934934139251709,-0.0943601131439209,8.866060256958008,1.846459984779358,1.999060034751892,0.0,523766.0
1.0,-62.773704528808594,-39.64963150024414,79.55097961425781,68.75364685058594,0.0,0.0,-0.0,0.0,0.33856114745140076,0.934934139251709,-0.0943601131439209,8.866060256958008,1.846459984779358,1.999060034751892,0.0,523767.0
1.0,-41.80815124511719,-30.134597778320312,-4.838264465332031,-10.210479736328125,0.0,0.0,-0.0,0.0,0.33856114745140076,0.934934139251709,-0.0943601131439209,8.866060256958008,1.846459984779358,1.999060034751892,0.0,523768.0
1.0,15.335399627685547,-2.10795521736145,-76.79102325439453,-75.31549072265625,0.0,0.0,-0.0,0.0,0.33856114745140076,0.934934139251709,-0.0943601131439209,8.866060256958008,1.846459984779358,1.999060034751892,0.0,523769.0
1.0,74.65174865722656,28.599077224731445,-100.8387451171875,-94.54934692382812,0.0,0.0,-0.0,0.0,0.33856114745140076,0.934934139251709,-0.0943601131439209,8.866060256958008,1.846459984779358,1.999060034751892,0.0,523770.0
1.0,98.56159210205078,44.4791145324707,-68.23920440673828,-61.5992317199707,0.0,0.0,-0.0,0.0,0.33856114745140076,0.934934139251709,-0.0943601131439209,8.866060256958008,1.846459984779358,1.999060034751892,0.0,523771.0
1.0,77.7166519165039,36.52488708496094,-0.21334119141101837,2.439056158065796,0.0,0.0,-0.0,0.0,0.34118565917015076,0.938169002532959,-0.0959470197558403,6.424459934234619,2.5026400089263916,1.846459984779358,0.0,523772.0
1.0,24.78182601928711,8.929862976074219,65.87261199951172,62.527259826660156,0.0,0.0,-0.0,0.0,0.34118565917015076,0.938169002532959,-0.0959470197558403,6.424459934234619,2.5026400089263916,1.846459984779358,0.0,523773.0
1.0,-39.983943939208984,-23.667316436767578,100.46842956542969,92.65084075927734,0.0,0.0,-0.0,0.0,0.34118565917015076,0.938169002532959,-0.0959470197558403,6.424459934234619,2.5026400089263916,1.846459984779358,0.0,523774.0
1.0,-88.75872039794922,-43.84158706665039,88.68710327148438,80.99819946289062,0.0,0.0,-0.0,0.0,0.34118565917015076,0.938169002532959,-0.0959470197558403,6.424459934234619,2.5026400089263916,1.846459984779358,0.0,523775.0
1.0,-102.01725006103516,-41.171566009521484,27.16213035583496,25.203916549682617,0.0,0.0,-0.0,0.0,0.34118565917015076,0.938169002532959,-0.0959470197558403,6.424459934234619,2.5026400089263916,1.846459984779358,0.0,523776.0
1.0,-80.87019348144531,-17.867713928222656,-65.56591033935547,-58.2298698425293,0.0,0.0,-0.0,0.0,0.34118565917015076,0.938169002532959,-0.0959470197558403,6.424459934234619,2.5026400089263916,1.846459984779358,0.0,523777.0
1.0,-34.45293426513672,13.682122230529785,-140.61270141601562,-125.90422058105469,0.0,0.0,-0.0,0.0,0.34118565917015076,0.938169002532959,-0.0959470197558403,6.424459934234619,2.5026400089263916,1.846459984779358,0.0,523778.0
1.0,22.522489547729492,37.354373931884766,-146.55020141601562,-131.87106323242188,0.0,0.0,-0.0,0.0,0.34118565917015076,0.938169002532959,-0.0959470197558403,6.424459934234619,2.5026400089263916,1.846459984779358,0.0,523779.0
1.0,65.67645263671875,41.033607482910156,-72.60496520996094,-65.71630096435547,0.0,0.0,-0.0,0.0,0.34118565917015076,0.938169002532959,-0.0959470197558403,6.424459934234619,2.5026400089263916,1.846459984779358,0.0,523780.0
1.0,74.5754165649414,23.111845016479492,43.12871551513672,39.28862762451172,0.0,0.0,-0.0,0.0,0.34118565917015076,0.938169002532959,-0.0959470197558403,6.424459934234619,2.5026400089263916,1.846459984779358,0.0,523781.0
1.0,47.89443588256836,-6.938891887664795,139.66017150878906,128.1494903564453,0.0,0.0,-0.0,0.0,0.33959874510765076,0.938535213470459,-0.0898435190320015,6.027699947357178,1.999060034751892,4.165979862213135,0.0,523782.0
1.0,3.8180429935455322,-33.35173034667969,166.6883087158203,154.19125366210938,0.0,0.0,-0.0,0.0,0.33959874510765076,0.938535213470459,-0.0898435190320015,6.027699947357178,1.999060034751892,4.165979862213135,0.0,523783.0
1.0,-29.01129150390625,-41.71607208251953,113.35446166992188,106.0084228515625,0.0,0.0,-0.0,0.0,0.33959874510765076,0.938535213470459,-0.0898435190320015,6.027699947357178,1.999060034751892,4.165979862213135,0.0,523784.0
1.0,-27.118417739868164,-26.985313415527344,13.618165969848633,13.647200584411621,0.0,0.0,-0.0,0.0,0.33959874510765076,0.938535213470459,-0.0898435190320015,6.027699947357178,1.999060034751892,4.165979862213135,0.0,523785.0
1.0,7.485306739807129,3.0480566024780273,-79.70034790039062,-74.27027130126953,0.0,0.0,-0.0,0.0,0.33959874510765076,0.938535213470459,-0.0898435190320015,6.027699947357178,1.999060034751892,4.165979862213135,0.0,523786.0
1.0,43.91956329345703,31.580904006958008,-124.87208557128906,-118.53974151611328,0.0,0.0,-0.0,0.0,0.33959874510765076,0.938535213470459,-0.0898435190320015,6.027699947357178,1.999060034751892,4.165979862213135,0.0,523787.0
1.0,50.21983337402344,42.576499938964844,-106.98418426513672,-104.69487762451172,0.0,0.0,-0.0,0.0,0.33959874510765076,0.938535213470459,-0.0898435190320015,6.027699947357178,1.999060034751892,4.165979862213135,0.0,523788.0
1.0,21.80280113220215,30.3521785736084,-41.11076354980469,-45.390811920166016,0.0,0.0,-0.0,0.0,0.33959874510765076,0.938535213470459,-0.0898435190320015,6.027699947357178,1.999060034751892,4.165979862213135,0.0,523789.0
1.0,-21.5441837310791,1.9445778131484985,38.19491958618164,29.225330352783203,0.0,0.0,-0.0,0.0,0.33959874510765076,0.938535213470459,-0.0898435190320015,6.027699947357178,1.999060034751892,4.165979862213135,0.0,523790.0
1.0,-58.40252685546875,-27.61685562133789,91.30313110351562,82.79108428955078,0.0,0.0,-0.0,0.0,0.33959874510765076,0.938535213470459,-0.0898435190320015,6.027699947357178,1.999060034751892,4.165979862213135,0.0,523791.0
1.0,-78.93968963623047,-43.03924560546875,89.17884826660156,86.81533813476562,0.0,0.0,-0.0,0.0,0.33917149901390076,0.935239315032959,-0.0891110971570015,3.219860076904297,1.3733999729156494,2.838360071182251,0.0,523792.0
1.0,-75.8021469116211,-36.196067810058594,33.41918182373047,40.79578399658203,0.0,0.0,-0.0,0.0,0.33917149901390076,0.935239315032959,-0.0891110971570015,3.219860076904297,1.3733999729156494,2.838360071182251,0.0,523793.0
1.0,-37.71984100341797,-10.094098091125488,-41.32558822631836,-25.574634552001953,0.0,0.0,-0.0,0.0,0.33917149901390076,0.935239315032959,-0.0891110971570015,3.219860076904297,1.3733999729156494,2.838360071182251,0.0,523794.0
1.0,27.741254806518555,21.917510986328125,-91.39430236816406,-74.88697052001953,0.0,0.0,-0.0,0.0,0.33917149901390076,0.935239315032959,-0.0891110971570015,3.219860076904297,1.3733999729156494,2.838360071182251,0.0,523795.0
1.0,81.18864440917969,42.35971450805664,-90.20134735107422,-82.9949722290039,0.0,0.0,-0.0,0.0,0.33917149901390076,0.935239315032959,-0.0891110971570015,3.219860076904297,1.3733999729156494,2.838360071182251,0.0,523796.0
1.0,85.41761779785156,39.89397430419922,-40.91837692260742,-47.77311706542969,0.0,0.0,-0.0,0.0,0.33917149901390076,0.935239315032959,-0.0891110971570015,3.219860076904297,1.3733999729156494,2.838360071182251,0.0,523797.0
1.0,41.98556137084961,16.110301971435547,26.195432662963867,9.763544082641602,0.0,0.0,-0.0,0.0,0.33917149901390076,0.935239315032959,-0.0891110971570015,3.219860076904297,1.3733999729156494,2.838360071182251,0.0,523798.0
1.0,-15.256591796875,-16.059309005737305,74.0277099609375,57.499969482421875,0.0,0.0,-0.0,0.0,0.33917149901390076,0.935239315032959,-0.0891110971570015,3.219860076904297,1.3733999729156494,2.838360071182251,0.0,523799.0
1.0,-49.902587890625,-39.192047119140625,82.66046905517578,73.3369369506836,0.0,0.0,-0.0,0.0,0.33917149901390076,0.935239315032959,-0.0891110971570015,3.219860076904297,1.3733999729156494,2.838360071182251,0.0,523800.0
1.0,-45.363338470458984,-40.460391998291016,54.263633728027344,54.36442184448242,0.0,0.0,-0.0,0.0,0.33917149901390076,0.935239315032959,-0.0891110971570015,3.219860076904297,1.3733999729156494,2.838360071182251,0.0,523801.0
1.0,-12.167520523071289,-19.250452041625977,2.1923279762268066,10.579999923706055,0.0,0.0,-0.0,0.0,0.33898839354515076,0.924497127532959,-0.08477761596441269,2.1516599655151367,1.0681999921798706,-1.5565199851989746,0.0,523802.0
1.0,24.771427154541016,12.420392990112305,-51.347293853759766,-38.0628776550293,0.0,0.0,-0.0,0.0,0.33898839354515076,0.924497127532959,-0.08477761596441269,2.1516599655151367,1.0681999921798706,-1.5565199851989746,0.0,523803.0
1.0,47.13795852661133,37.13749313354492,-74.89881134033203,-62.8709602355957,0.0,0.0,-0.0,0.0,0.33898839354515076,0.924497127532959,-0.08477761596441269,2.1516599655151367,1.0681999921798706,-1.5565199851989746,0.0,523804.0
1.0,47.49527359008789,41.958045959472656,-49.280418395996094,-44.76907730102539,0.0,0.0,-0.0,0.0,0.33898839354515076,0.924497127532959,-0.08477761596441269,2.1516599655151367,1.0681999921798706,-1.5565199851989746,0.0,523805.0
1.0,22.20480728149414,24.654977798461914,10.222582817077637,5.600726127624512,0.0,0.0,-0.0,0.0,0.33898839354515076,0.924497127532959,-0.08477761596441269,2.1516599655151367,1.0681999921798706,-1.5565199851989746,0.0,523806.0
1.0,-24.476058959960938,-6.0569610595703125,65.32001495361328,55.013851165771484,0.0,0.0,-0.0,0.0,0.33898839354515076,0.924497127532959,-0.08477761596441269,2.1516599655151367,1.0681999921798706,-1.5565199851989746,0.0,523807.0
1.0,-69.44462585449219,-34.31788635253906,83.31221008300781,72.34326171875,0.0,0.0,-0.0,0.0,0.33898839354515076,0.924497127532959,-0.08477761596441269,2.1516599655151367,1.0681999921798706,-1.5565199851989746,0.0,523808.0
1.0,-79.48348999023438,-44.68606185913086,52.53129196166992,45.51325225830078,0.0,0.0,-0.0,0.0,0.33898839354515076,0.924497127532959,-0.08477761596441269,2.1516599655151367,1.0681999921798706,-1.5565199851989746,0.0,523809.0
1.0,-40.54151916503906,-31.112403869628906,-14.469404220581055,-13.516654968261719,0.0,0.0,0.0,0.0,0.33898839354515076,0.924497127532959,-0.08477761596441269,2.1516599655151367,1.0681999921798706,-1.5565199851989746,0.0,523810.0
1.0,25.41992950439453,-0.856436014175415,-83.53863525390625,-73.04216003417969,0.0,0.0,0.0,0.0,0.33898839354515076,0.924497127532959,-0.08477761596441269,2.1516599655151367,1.0681999921798706,-1.5565199851989746,0.0,523811.0
1.0,73.63826751708984,29.330280303955078,-112.74818420410156,-96.43511962890625,0.0,0.0,0.0,0.0,0.33795079588890076,0.9135718941688538,-0.08251932263374329,7.187459945678711,-0.488319993019104,-4.959499835968018,0.0,523812.0
1.0,71.66204071044922,42.83435821533203,-77.91566467285156,-64.55738067626953,0.0,0.0,0.0,0.0,0.33795079588890076,0.9135718941688538,-0.08251932263374329,7.187459945678711,-0.488319993019104,-4.959499835968018,0.0,523813.0
1.0,28.690170288085938,33.014225006103516,5.082537651062012,6.629209995269775,0.0,0.0,0.0,0.0,0.33795079588890076,0.9135718941688538,-0.08251932263374329,7.187459945678711,-0.488319993019104,-4.959499835968018,0.0,523814.0
1.0,-18.632118225097656,6.179368019104004,86.58164978027344,74.0129165649414,0.0,0.0,0.0,0.0,0.33795079588890076,0.9135718941688538,-0.08251932263374329,7.187459945678711,-0.488319993019104,-4.959499835968018,0.0,523815.0
1.0,-46.03818893432617,-22.99880599975586,117.686767578125,98.11923217773438,0.0,0.0,0.0,0.0,0.33795079588890076,0.9135718941688538,-0.08251932263374329,7.187459945678711,-0.488319993019104,-4.959499835968018,0.0,523816.0
1.0,-52.051761627197266,-39.250953674316406,82.27775573730469,67.4710693359375,0.0,0.0,0.0,0.0,0.33795079588890076,0.9135718941688538,-0.08251932263374329,7.187459945678711,-0.488319993019104,-4.959499835968018,0.0,523817.0
1.0,-41.161231994628906,-34.184288024902344,4.459395408630371,1.5583146810531616,0.0,0.0,0.0,0.0,0.33795079588890076,0.9135718941688538,-0.08251932263374329,7.187459945678711,-0.488319993019104,-4.959499835968018,0.0,523818.0
1.0,-14.441068649291992,-10.572815895080566,-70.5113754272461,-63.25418472290039,0.0,0.0,0.0,0.0,0.33795079588890076,0.9135718941688538,-0.08251932263374329,7.187459945678711,-0.488319993019104,-4.959499835968018,0.0,523819.0
1.0,22.678239822387695,18.577877044677734,-105.31378936767578,-94.19161987304688,0.0,0.0,0.0,0.0,0.33795079588890076,0.9135718941688538,-0.08251932263374329,7.187459945678711,-0.488319993019104,-4.959499835968018,0.0,523820.0
1.0,51.382015228271484,36.70667266845703,-88.19013214111328,-78.08740234375,0.0,0.0,0.0,0.0,0.33795079588890076,0.9135718941688538,-0.08251932263374329,7.187459945678711,-0.488319993019104,-4.959499835968018,0.0,523821.0
1.0,52.4021110534668,33.652103424072266,-31.73522186279297,-25.304183959960938,0.0,0.0,0.0,0.0,0.33923253417015076,0.9168067574501038,-0.08203104138374329,7.675779819488525,-1.876979947090149,-6.531280040740967,0.0,523822.0
1.0,27.09337043762207,11.600872993469238,39.311012268066406,39.83433151245117,0.0,0.0,0.0,0.0,0.33923253417015076,0.9168067574501038,-0.08203104138374329,7.675779819488525,-1.876979947090149,-6.531280040740967,0.0,523823.0
1.0,-5.514558792114258,-16.888328552246094,97.21624755859375,91.02971649169922,0.0,0.0,0.0,0.0,0.33923253417015076,0.9168067574501038,-0.08203104138374329,7.675779819488525,-1.876979947090149,-6.531280040740967,0.0,523824.0
1.0,-26.81111717224121,-35.77882766723633,116.7408676147461,106.51612091064453,0.0,0.0,0.0,0.0,0.33923253417015076,0.9168067574501038,-0.08203104138374329,7.675779819488525,-1.876979947090149,-6.531280040740967,0.0,523825.0
1.0,-27.253063201904297,-34.22397232055664,85.02324676513672,76.22205352783203,0.0,0.0,0.0,0.0,0.33923253417015076,0.9168067574501038,-0.08203104138374329,7.675779819488525,-1.876979947090149,-6.531280040740967,0.0,523826.0
1.0,-7.643468379974365,-12.868334770202637,10.274019241333008,8.70569896697998,0.0,0.0,0.0,0.0,0.33923253417015076,0.9168067574501038,-0.08203104138374329,7.675779819488525,-1.876979947090149,-6.531280040740967,0.0,523827.0
1.0,15.237019538879395,16.340925216674805,-77.37599182128906,-69.25011444091797,0.0,0.0,0.0,0.0,0.33923253417015076,0.9168067574501038,-0.08203104138374329,7.675779819488525,-1.876979947090149,-6.531280040740967,0.0,523828.0
1.0,15.984158515930176,36.736968994140625,-133.48020935058594,-119.9505615234375,0.0,0.0,0.0,0.0,0.33923253417015076,0.9168067574501038,-0.08203104138374329,7.675779819488525,-1.876979947090149,-6.531280040740967,0.0,523829.0
1.0,-9.723771095275879,36.8669548034668,-123.0442886352539,-113.19928741455078,0.0,0.0,0.0,0.0,0.33923253417015076,0.9168067574501038,-0.08203104138374329,7.675779819488525,-1.876979947090149,-6.531280040740967,0.0,523830.0
1.0,-38.95232391357422,16.96234130859375,-48.76254653930664,-49.33784866333008,0.0,0.0,0.0,0.0,0.33923253417015076,0.9168067574501038,-0.08203104138374329,7.675779819488525,-1.876979947090149,-6.531280040740967,0.0,523831.0
1.0,-47.762054443359375,-12.362750053405762,48.13859558105469,37.46794128417969,0.0,0.0,0.0,0.0,0.34051427245140076,0.924130916595459,-0.08154276013374329,5.264699935913086,-1.7243800163269043,-6.6991400718688965,0.0,523832.0
1.0,-27.139863967895508,-35.76186752319336,115.23200988769531,100.42803955078125,0.0,0.0,0.0,0.0,0.34051427245140076,0.924130916595459,-0.08154276013374329,5.264699935913086,-1.7243800163269043,-6.6991400718688965,0.0,523833.0
1.0,12.22335433959961,-40.40406036376953,118.57653045654297,108.0766372680664,0.0,0.0,0.0,0.0,0.34051427245140076,0.924130916595459,-0.08154276013374329,5.264699935913086,-1.7243800163269043,-6.6991400718688965,0.0,523834.0
1.0,45.13248062133789,-22.953733444213867,59.03047561645508,60.41188430786133,0.0,0.0,0.0,0.0,0.34051427245140076,0.924130916595459,-0.08154276013374329,5.264699935913086,-1.7243800163269043,-6.6991400718688965,0.0,523835.0
1.0,55.58808898925781,7.874881744384766,-28.940826416015625,-14.569159507751465,0.0,0.0,0.0,0.0,0.34051427245140076,0.924130916595459,-0.08154276013374329,5.264699935913086,-1.7243800163269043,-6.6991400718688965,0.0,523836.0
1.0,46.696327209472656,35.17625427246094,-96.38785552978516,-77.22479248046875,0.0,0.0,0.0,0.0,0.34051427245140076,0.924130916595459,-0.08154276013374329,5.264699935913086,-1.7243800163269043,-6.6991400718688965,0.0,523837.0
1.0,25.6369686126709,43.33845138549805,-107.432373046875,-95.39641571044922,0.0,0.0,0.0,0.0,0.34051427245140076,0.924130916595459,-0.08154276013374329,5.264699935913086,-1.7243800163269043,-6.6991400718688965,0.0,523838.0
1.0,-4.622849941253662,27.72568130493164,-57.83216094970703,-59.96817398071289,0.0,0.0,0.0,-0.0,0.34051427245140076,0.924130916595459,-0.08154276013374329,5.264699935913086,-1.7243800163269043,-6.6991400718688965,0.0,523839.0
1.0,-38.205238342285156,-3.176779270172119,22.461082458496094,7.576221942901611,0.0,0.0,0.0,-0.0,0.34051427245140076,0.924130916595459,-0.08154276013374329,5.264699935913086,-1.7243800163269043,-6.6991400718688965,0.0,523840.0
1.0,-60.04713439941406,-33.06991195678711,84.9549331665039,65.12580108642578,0.0,0.0,0.0,-0.0,0.34051427245140076,0.924130916595459,-0.08154276013374329,5.264699935913086,-1.7243800163269043,-6.6991400718688965,0.0,523841.0
1.0,-52.704246520996094,-45.90253829956055,95.5932388305664,80.28541564941406,0.0,0.0,0.0,-0.0,0.33929356932640076,0.928647518157959,-0.08489968627691269,10.117380142211914,-0.5493599772453308,-5.2494401931762695,0.0,523842.0
1.0,-12.514578819274902,-34.164371490478516,57.34521484375,53.03208541870117,0.0,0.0,0.0,-0.0,0.33929356932640076,0.928647518157959,-0.08489968627691269,10.117380142211914,-0.5493599772453308,-5.2494401931762695,0.0,523843.0
1.0,40.93730545043945,-3.4095425605773926,-1.1897597312927246,6.671388149261475,0.0,0.0,0.0,-0.0,0.33929356932640076,0.928647518157959,-0.08489968627691269,10.117380142211914,-0.5493599772453308,-5.2494401931762695,0.0,523844.0
1.0,71.70429992675781,30.17120361328125,-50.93993377685547,-35.09180450439453,0.0,0.0,0.0,-0.0,0.33929356932640076,0.928647518157959,-0.08489968627691269,10.117380142211914,-0.5493599772453308,-5.2494401931762695,0.0,523845.0
1.0,53.45988082885742,48.10963439941406,-75.63298797607422,-59.73638153076172,0.0,0.0,0.0,-0.0,0.33929356932640076,0.928647518157959,-0.08489968627691269,10.117380142211914,-0.5493599772453308,-5.2494401931762695,0.0,523846.0
1.0,-4.21568489074707,40.41159439086914,-70.96331787109375,-62.12656784057617,0.0,0.0,0.0,-0.0,0.33929356932640076,0.928647518157959,-0.08489968627691269,10.117380142211914,-0.5493599772453308,-5.2494401931762695,0.0,523847.0
1.0,-64.10233306884766,11.554815292358398,-38.943031311035156,-38.966094970703125,0.0,0.0,0.0,-0.0,0.33929356932640076,0.928647518157959,-0.08489968627691269,10.117380142211914,-0.5493599772453308,-5.2494401931762695,0.0,523848.0
1.0,-93.4234390258789,-22.80033302307129,10.918049812316895,4.958922386169434,0.0,0.0,0.0,-0.0,0.33929356932640076,0.928647518157959,-0.08489968627691269,10.117380142211914,-0.5493599772453308,-5.2494401931762695,0.0,523849.0
1.0,-78.17816162109375,-44.727134704589844,57.306358337402344,49.145477294921875,0.0,0.0,0.0,-0.0,0.33929356932640076,0.928647518157959,-0.08489968627691269,10.117380142211914,-0.5493599772453308,-5.2494401931762695,0.0,523850.0
1.0,-22.04246711730957,-43.22947311401367,75.04911804199219,66.97245025634766,0.0,0.0,0.0,-0.0,0.33929356932640076,0.928647518157959,-0.08489968627691269,10.117380142211914,-0.5493599772453308,-5.2494401931762695,0.0,523851.0
1.0,51.92918014526367,-19.65774917602539,52.74716567993164,46.32780456542969,0.0,0.0,0.0,-0.0,0.33715733885765076,0.939572811126709,-0.08819557726383209,6.6381001472473145,-0.8392999768257141,-1.892240047454834,0.0,523852.0
1.0,109.28276824951172,13.266373634338379,3.500187635421753,0.6365603804588318,0.0,0.0,0.0,-0.0,0.33715733885765076,0.939572811126709,-0.08819557726383209,6.6381001472473145,-0.8392999768257141,-1.892240047454834,0.0,523853.0
1.0,122.44449615478516,38.252262115478516,-40.76808547973633,-38.97332763671875,0.0,0.0,0.0,-0.0,0.33715733885765076,0.939572811126709,-0.08819557726383209,6.6381001472473145,-0.8392999768257141,-1.892240047454834,0.0,523854.0
1.0,83.55068969726562,42.94537353515625,-51.09196090698242,-46.17179489135742,0.0,0.0,0.0,-0.0,0.33715733885765076,0.939572811126709,-0.08819557726383209,6.6381001472473145,-0.8392999768257141,-1.892240047454834,0.0,523855.0
1.0,7.871899127960205,25.89453125,-22.451330184936523,-17.948400497436523,0.0,0.0,0.0,-0.0,0.33715733885765076,0.939572811126709,-0.08819557726383209,6.6381001472473145,-0.8392999768257141,-1.892240047454834,0.0,523856.0
1.0,-70.91594696044922,-4.090083122253418,23.493864059448242,24.722578048706055,0.0,0.0,0.0,-0.0,0.33715733885765076,0.939572811126709,-0.08819557726383209,6.6381001472473145,-0.8392999768257141,-1.892240047454834,0.0,523857.0
1.0,-113.61573791503906,-31.883907318115234,53.067989349365234,50.90230941772461,0.0,0.0,0.0,-0.0,0.33715733885765076,0.939572811126709,-0.08819557726383209,6.6381001472473145,-0.8392999768257141,-1.892240047454834,0.0,523858.0
1.0,-100.38337707519531,-42.74528884887695,43.164974212646484,40.66988754272461,0.0,0.0,0.0,-0.0,0.33715733885765076,0.939572811126709,-0.08819557726383209,6.6381001472473145,-0.8392999768257141,-1.892240047454834,0.0,523859.0
1.0,-46.60625076293945,-30.763751983642578,-5.144096374511719,-3.5733132362365723,0.0,0.0,0.0,-0.0,0.33715733885765076,0.939572811126709,-0.08819557726383209,6.6381001472473145,-0.8392999768257141,-1.892240047454834,0.0,523860.0
1.0,11.90604019165039,-2.7453997135162354,-66.61986541748047,-59.055606842041016,0.0,0.0,0.0,-0.0,0.33715733885765076,0.939572811126709,-0.08819557726383209,6.6381001472473145,-0.8392999768257141,-1.892240047454834,0.0,523861.0
1.0,45.71686553955078,25.456676483154297,-102.3151626586914,-91.48224639892578,0.0,0.0,0.0,-0.0,0.33373937010765076,0.9439062476158142,-0.0891110971570015,5.142620086669922,-1.0681999921798706,-0.091559998691082,0.0,523862.0
1.0,49.805641174316406,38.18757629394531,-83.82483673095703,-75.6602783203125,0.0,0.0,0.0,-0.0,0.33373937010765076,0.9439062476158142,-0.0891110971570015,5.142620086669922,-1.0681999921798706,-0.091559998691082,0.0,523863.0
1.0,38.07245635986328,29.289228439331055,-13.392732620239258,-13.983110427856445,0.0,0.0,0.0,-0.0,0.33373937010765076,0.9439062476158142,-0.0891110971570015,5.142620086669922,-1.0681999921798706,-0.091559998691082,0.0,523864.0
1.0,21.952293395996094,4.668908596038818,76.04440307617188,63.9346809387207,0.0,0.0,0.0,-0.0,0.33373937010765076,0.9439062476158142,-0.0891110971570015,5.142620086669922,-1.0681999921798706,-0.091559998691082,0.0,523865.0
1.0,4.092304229736328,-21.93031120300293,135.9134979248047,116.2641830444336,0.0,0.0,0.0,-0.0,0.33373937010765076,0.9439062476158142,-0.0891110971570015,5.142620086669922,-1.0681999921798706,-0.091559998691082,0.0,523866.0
1.0,-14.568928718566895,-36.02445983886719,129.2069854736328,112.33680725097656,0.0,0.0,0.0,-0.0,0.33373937010765076,0.9439062476158142,-0.0891110971570015,5.142620086669922,-1.0681999921798706,-0.091559998691082,0.0,523867.0
1.0,-28.88966941833496,-29.796674728393555,55.990787506103516,51.298118591308594,0.0,0.0,0.0,-0.0,0.33373937010765076,0.9439062476158142,-0.0891110971570015,5.142620086669922,-1.0681999921798706,-0.091559998691082,0.0,523868.0
1.0,-27.27159309387207,-6.304978370666504,-44.645042419433594,-36.39529800415039,0.0,0.0,0.0,-0.0,0.33373937010765076,0.9439062476158142,-0.0891110971570015,5.142620086669922,-1.0681999921798706,-0.091559998691082,0.0,523869.0
1.0,-2.538750410079956,21.803529739379883,-118.57466125488281,-103.86251068115234,0.0,0.0,0.0,-0.0,0.33373937010765076,0.9439062476158142,-0.0891110971570015,5.142620086669922,-1.0681999921798706,-0.091559998691082,0.0,523870.0
1.0,30.749534606933594,38.68959426879883,-129.56930541992188,-115.25017547607422,0.0,0.0,0.0,-0.0,0.33373937010765076,0.9439062476158142,-0.0891110971570015,5.142620086669922,-1.0681999921798706,-0.091559998691082,0.0,523871.0
1.0,42.537254333496094,34.48158264160156,-78.81080627441406,-69.0815200805664,0.0,0.0,0.0,-0.0,0.33587560057640076,0.937924861907959,-0.0908811166882515,10.086859703063965,0.2289000004529953,1.1139800548553467,0.0,523872.0
1.0,18.556894302368164,11.198335647583008,1.2124801874160767,4.525940895080566,0.0,0.0,0.0,-0.0,0.33587560057640076,0.937924861907959,-0.0908811166882515,10.086859703063965,0.2289000004529953,1.1139800548553467,0.0,523873.0
1.0,-23.98017120361328,-18.533920288085938,69.74237060546875,66.79827117919922,0.0,0.0,0.0,-0.0,0.33587560057640076,0.937924861907959,-0.0908811166882515,10.086859703063965,0.2289000004529953,1.1139800548553467,0.0,523874.0
