CH_1,CH_2,CH_3,CH_4,CH_5,CH_6,CH_7,CH_8,CH_9,CH_10,CH_11,CH_12,CH_13,CH_14,CH_15,CH_16,CH_17
1.0,-3.4715611934661865,-4.554943084716797,-21.171791076660156,-19.097253799438477,0.0,0.0,0.0,-0.0,0.43298229575157166,0.9051490426063538,0.033874426037073135,3.3877201080322266,-0.946120023727417,-1.434440016746521,0.0,513326.0
1.0,23.784317016601562,20.03989601135254,-67.7345199584961,-59.82658004760742,0.0,0.0,0.0,-0.0,0.43298229575157166,0.9051490426063538,0.033874426037073135,3.3877201080322266,-0.946120023727417,-1.434440016746521,0.0,513327.0
1.0,36.4428596496582,34.43292236328125,-79.49591827392578,-70.1641616821289,0.0,0.0,0.0,-0.0,0.43298229575157166,0.9051490426063538,0.033874426037073135,3.3877201080322266,-0.946120023727417,-1.434440016746521,0.0,513328.0
1.0,27.761999130249023,30.55535125732422,-48.95917510986328,-43.64476776123047,0.0,0.0,0.0,-0.0,0.43298229575157166,0.9051490426063538,0.033874426037073135,3.3877201080322266,-0.946120023727417,-1.434440016746521,0.0,513329.0
1.0,2.9213757514953613,10.415547370910645,7.640800476074219,5.842666149139404,0.0,0.0,0.0,-0.0,0.43298229575157166,0.9051490426063538,0.033874426037073135,3.3877201080322266,-0.946120023727417,-1.434440016746521,0.0,513330.0
1.0,-23.952882766723633,-15.398953437805176,59.81999206542969,52.08415985107422,0.0,0.0,0.0,-0.0,0.43298229575157166,0.9051490426063538,0.033874426037073135,3.3877201080322266,-0.946120023727417,-1.434440016746521,0.0,513331.0
1.0,-37.35369873046875,-33.31413650512695,80.06522369384766,70.84114837646484,0.0,0.0,0.0,-0.0,0.43109020590782166,0.9035010933876038,0.033874426037073135,3.4792799949645996,-0.4120199978351593,-0.366239994764328,0.0,513332.0
1.0,-28.91893196105957,-33.626853942871094,58.2817268371582,52.37154006958008,0.0,0.0,0.0,-0.0,0.43109020590782166,0.9035010933876038,0.033874426037073135,3.4792799949645996,-0.4120199978351593,-0.366239994764328,0.0,513333.0
1.0,-3.298065423965454,-15.716955184936523,5.866713523864746,5.954685688018799,0.0,0.0,0.0,-0.0,0.43109020590782166,0.9035010933876038,0.033874426037073135,3.4792799949645996,-0.4120199978351593,-0.366239994764328,0.0,513334.0
1.0,24.054481506347656,11.336359977722168,-50.631778717041016,-44.88222885131836,0.0,0.0,0.0,-0.0,0.43109020590782166,0.9035010933876038,0.033874426037073135,3.4792799949645996,-0.4120199978351593,-0.366239994764328,0.0,513335.0
1.0,37.056182861328125,32.93484878540039,-81.17948150634766,-72.857421875,0.0,0.0,0.0,-0.0,0.43109020590782166,0.9035010933876038,0.033874426037073135,3.4792799949645996,-0.4120199978351593,-0.366239994764328,0.0,513336.0
1.0,29.49778175354004,36.91361999511719,-67.80105590820312,-61.32426452636719,0.0,0.0,0.0,-0.0,0.43109020590782166,0.9035010933876038,0.033874426037073135,3.4792799949645996,-0.4120199978351593,-0.366239994764328,0.0,513337.0
1.0,7.383758544921875,20.875951766967773,-16.827058792114258,-15.670454025268555,0.0,0.0,0.0,-0.0,0.43109020590782166,0.9035010933876038,0.033874426037073135,3.4792799949645996,-0.4120199978351593,-0.366239994764328,0.0,513338.0
1.0,-16.864351272583008,-6.794007301330566,44.020565032958984,39.18844223022461,0.0,0.0,0.0,-0.0,0.43109020590782166,0.9035010933876038,0.033874426037073135,3.4792799949645996,-0.4120199978351593,-0.366239994764328,0.0,513339.0
1.0,-31.375463485717773,-31.59781265258789,81.51991271972656,73.28897094726562,0.0,0.0,0.0,-0.0,0.43109020590782166,0.9035010933876038,0.033874426037073135,3.4792799949645996,-0.4120199978351593,-0.366239994764328,0.0,513340.0
1.0,-29.816112518310547,-40.166229248046875,75.25936889648438,68.14334869384766,0.0,0.0,0.0,-0.0,0.43109020590782166,0.9035010933876038,0.033874426037073135,3.4792799949645996,-0.4120199978351593,-0.366239994764328,0.0,513341.0
1.0,-13.208457946777344,-27.605253219604492,29.16253662109375,27.101634979248047,0.0,0.0,0.0,-0.0,0.43157848715782166,0.9015479683876038,0.03472891449928284,3.9523398876190186,-0.015259999781847,-0.045779999345541,0.0,513342.0
1.0,11.28283405303955,-0.4950180947780609,-31.051626205444336,-26.92323875427246,0.0,0.0,0.0,-0.0,0.43157848715782166,0.9015479683876038,0.03472891449928284,3.9523398876190186,-0.015259999781847,-0.045779999345541,0.0,513343.0
1.0,31.868732452392578,26.69962501525879,-72.3984146118164,-64.40904235839844,0.0,0.0,0.0,-0.0,0.43157848715782166,0.9015479683876038,0.03472891449928284,3.9523398876190186,-0.015259999781847,-0.045779999345541,0.0,513344.0
1.0,36.22999954223633,39.60560989379883,-73.51905822753906,-66.06837463378906,0.0,0.0,0.0,-0.0,0.43157848715782166,0.9015479683876038,0.03472891449928284,3.9523398876190186,-0.015259999781847,-0.045779999345541,0.0,513345.0
1.0,19.66545867919922,31.742631912231445,-36.7567024230957,-33.866432189941406,0.0,0.0,0.0,-0.0,0.43157848715782166,0.9015479683876038,0.03472891449928284,3.9523398876190186,-0.015259999781847,-0.045779999345541,0.0,513346.0
1.0,-9.946866035461426,7.585289478302002,16.402530670166016,13.148578643798828,0.0,0.0,0.0,-0.0,0.43157848715782166,0.9015479683876038,0.03472891449928284,3.9523398876190186,-0.015259999781847,-0.045779999345541,0.0,513347.0
1.0,-35.79973220825195,-20.001882553100586,58.740020751953125,51.02850341796875,0.0,0.0,0.0,-0.0,0.43157848715782166,0.9015479683876038,0.03472891449928284,3.9523398876190186,-0.015259999781847,-0.045779999345541,0.0,513348.0
1.0,-42.4719352722168,-36.27173614501953,68.76648712158203,60.87163162231445,0.0,0.0,0.0,-0.0,0.43157848715782166,0.9015479683876038,0.03472891449928284,3.9523398876190186,-0.015259999781847,-0.045779999345541,0.0,513349.0
1.0,-26.145793914794922,-32.55650329589844,40.677337646484375,37.27031326293945,0.0,0.0,0.0,-0.0,0.43157848715782166,0.9015479683876038,0.03472891449928284,3.9523398876190186,-0.015259999781847,-0.045779999345541,0.0,513350.0
1.0,4.055227279663086,-11.130285263061523,-10.461230278015137,-7.306106090545654,0.0,0.0,0.0,-0.0,0.43157848715782166,0.9015479683876038,0.03472891449928284,3.9523398876190186,-0.015259999781847,-0.045779999345541,0.0,513351.0
1.0,32.53319549560547,16.066232681274414,-55.47846603393555,-47.826316833496094,0.0,0.0,0.0,-0.0,0.43188366293907166,0.9009986519813538,0.03668203577399254,5.310480117797852,0.3052000105381012,0.015259999781847,0.0,513352.0
1.0,44.381431579589844,33.97800064086914,-68.35094451904297,-60.82684326171875,0.0,0.0,0.0,-0.0,0.43188366293907166,0.9009986519813538,0.03668203577399254,5.310480117797852,0.3052000105381012,0.015259999781847,0.0,513353.0
1.0,32.709251403808594,33.178138732910156,-42.49793243408203,-39.08103561401367,0.0,0.0,0.0,-0.0,0.43188366293907166,0.9009986519813538,0.03668203577399254,5.310480117797852,0.3052000105381012,0.015259999781847,0.0,513354.0
1.0,3.1552164554595947,14.823256492614746,6.386748313903809,4.440976619720459,0.0,0.0,0.0,-0.0,0.43188366293907166,0.9009986519813538,0.03668203577399254,5.310480117797852,0.3052000105381012,0.015259999781847,0.0,513355.0
1.0,-28.801237106323242,-11.218361854553223,51.276458740234375,45.40245819091797,0.0,0.0,0.0,-0.0,0.43188366293907166,0.9009986519813538,0.03668203577399254,5.310480117797852,0.3052000105381012,0.015259999781847,0.0,513356.0
1.0,-45.68680953979492,-31.468658447265625,68.41100311279297,61.548561096191406,0.0,0.0,0.0,-0.0,0.43188366293907166,0.9009986519813538,0.03668203577399254,5.310480117797852,0.3052000105381012,0.015259999781847,0.0,513357.0
1.0,-37.77903747558594,-35.05708694458008,48.854042053222656,44.20029067993164,0.0,0.0,0.0,-0.0,0.43188366293907166,0.9009986519813538,0.03668203577399254,5.310480117797852,0.3052000105381012,0.015259999781847,0.0,513358.0
1.0,-8.856880187988281,-19.755178451538086,3.1158783435821533,2.9711601734161377,0.0,0.0,0.0,-0.0,0.43188366293907166,0.9009986519813538,0.03668203577399254,5.310480117797852,0.3052000105381012,0.015259999781847,0.0,513359.0
1.0,26.179040908813477,6.230481147766113,-44.113670349121094,-39.41654586791992,0.0,0.0,0.0,-0.0,0.43188366293907166,0.9009986519813538,0.03668203577399254,5.310480117797852,0.3052000105381012,0.015259999781847,0.0,513360.0
1.0,48.64049530029297,28.38104248046875,-66.76060485839844,-59.39399337768555,0.0,0.0,0.0,-0.0,0.43188366293907166,0.9009986519813538,0.03668203577399254,5.310480117797852,0.3052000105381012,0.015259999781847,0.0,513361.0
1.0,45.46230697631836,34.20997619628906,-52.29636764526367,-46.16999053955078,0.0,0.0,-0.0,-0.0,0.43188366293907166,0.9011207222938538,0.03655996546149254,5.92087984085083,0.8545600175857544,-0.030519999563694,0.0,513362.0
1.0,17.290639877319336,20.806947708129883,-9.304932594299316,-7.883670330047607,0.0,0.0,-0.0,-0.0,0.43188366293907166,0.9011207222938538,0.03655996546149254,5.92087984085083,0.8545600175857544,-0.030519999563694,0.0,513363.0
1.0,-20.636247634887695,-3.957458019256592,38.5775146484375,34.391143798828125,0.0,0.0,-0.0,-0.0,0.43188366293907166,0.9011207222938538,0.03655996546149254,5.92087984085083,0.8545600175857544,-0.030519999563694,0.0,513364.0
1.0,-46.91969299316406,-26.202695846557617,65.70999908447266,58.04423904418945,0.0,0.0,-0.0,-0.0,0.43188366293907166,0.9011207222938538,0.03655996546149254,5.92087984085083,0.8545600175857544,-0.030519999563694,0.0,513365.0
1.0,-47.482215881347656,-33.58260726928711,57.09882354736328,49.84276580810547,0.0,0.0,-0.0,-0.0,0.43188366293907166,0.9011207222938538,0.03655996546149254,5.92087984085083,0.8545600175857544,-0.030519999563694,0.0,513366.0
1.0,-23.924081802368164,-22.128541946411133,16.333477020263672,13.165827751159668,0.0,0.0,-0.0,-0.0,0.43188366293907166,0.9011207222938538,0.03655996546149254,5.92087984085083,0.8545600175857544,-0.030519999563694,0.0,513367.0
1.0,9.857792854309082,1.7652361392974854,-35.53234100341797,-32.934513092041016,0.0,0.0,-0.0,-0.0,0.43188366293907166,0.9011207222938538,0.03655996546149254,5.92087984085083,0.8545600175857544,-0.030519999563694,0.0,513368.0
1.0,36.62350082397461,24.892894744873047,-69.58308410644531,-62.621124267578125,0.0,0.0,-0.0,-0.0,0.43188366293907166,0.9011207222938538,0.03655996546149254,5.92087984085083,0.8545600175857544,-0.030519999563694,0.0,513369.0
1.0,43.51519775390625,34.37683868408203,-65.35967254638672,-57.92757797241211,0.0,0.0,-0.0,-0.0,0.43188366293907166,0.9011207222938538,0.03655996546149254,5.92087984085083,0.8545600175857544,-0.030519999563694,0.0,513370.0
1.0,27.940086364746094,25.02144432067871,-24.712825775146484,-20.884729385375977,0.0,0.0,-0.0,-0.0,0.43188366293907166,0.9011207222938538,0.03655996546149254,5.92087984085083,0.8545600175857544,-0.030519999563694,0.0,513371.0
1.0,-1.199866771697998,1.9084949493408203,30.00151824951172,28.42160987854004,0.0,0.0,-0.0,-0.0,0.43029674887657166,0.9023414254188538,0.03570547327399254,3.784480094909668,0.6104000210762024,0.8545600175857544,0.0,513372.0
1.0,-28.142765045166016,-22.74641990661621,69.67388153076172,64.13843536376953,0.0,0.0,-0.0,-0.0,0.43029674887657166,0.9023414254188538,0.03570547327399254,3.784480094909668,0.6104000210762024,0.8545600175857544,0.0,513373.0
1.0,-37.860252380371094,-35.8950080871582,73.64746856689453,67.85728454589844,0.0,0.0,-0.0,-0.0,0.43029674887657166,0.9023414254188538,0.03570547327399254,3.784480094909668,0.6104000210762024,0.8545600175857544,0.0,513374.0
1.0,-24.738248825073242,-30.569576263427734,40.04514694213867,37.60239028930664,0.0,0.0,-0.0,-0.0,0.43029674887657166,0.9023414254188538,0.03570547327399254,3.784480094909668,0.6104000210762024,0.8545600175857544,0.0,513375.0
1.0,2.8236052989959717,-9.413020133972168,-14.48940372467041,-12.234598159790039,0.0,0.0,-0.0,-0.0,0.43029674887657166,0.9023414254188538,0.03570547327399254,3.784480094909668,0.6104000210762024,0.8545600175857544,0.0,513376.0
1.0,27.457223892211914,17.007905960083008,-63.00839614868164,-57.596858978271484,0.0,0.0,-0.0,-0.0,0.43029674887657166,0.9023414254188538,0.03570547327399254,3.784480094909668,0.6104000210762024,0.8545600175857544,0.0,513377.0
1.0,34.01835250854492,35.18680191040039,-80.26286315917969,-75.06591796875,0.0,0.0,-0.0,-0.0,0.43029674887657166,0.9023414254188538,0.03570547327399254,3.784480094909668,0.6104000210762024,0.8545600175857544,0.0,513378.0
1.0,18.91471290588379,35.44596481323242,-56.8168830871582,-54.98624801635742,0.0,0.0,-0.0,-0.0,0.43029674887657166,0.9023414254188538,0.03570547327399254,3.784480094909668,0.6104000210762024,0.8545600175857544,0.0,513379.0
1.0,-8.608088493347168,17.369098663330078,-5.111729145050049,-7.836650848388672,0.0,0.0,-0.0,-0.0,0.43029674887657166,0.9023414254188538,0.03570547327399254,3.784480094909668,0.6104000210762024,0.8545600175857544,0.0,513380.0
1.0,-32.915836334228516,-9.756093978881836,48.044803619384766,41.95470428466797,0.0,0.0,-0.0,-0.0,0.43029674887657166,0.9023414254188538,0.03570547327399254,3.784480094909668,0.6104000210762024,0.8545600175857544,0.0,513381.0
1.0,-40.25519561767578,-31.35747718811035,75.14856719970703,68.57197570800781,0.0,0.0,-0.0,-0.0,0.43139538168907166,0.9042335152626038,0.03649893030524254,3.052000045776367,-0.1526000052690506,0.366239994764328,0.0,513382.0
1.0,-25.58993911743164,-35.343231201171875,62.15749740600586,58.4307746887207,0.0,0.0,-0.0,-0.0,0.43139538168907166,0.9042335152626038,0.03649893030524254,3.052000045776367,-0.1526000052690506,0.366239994764328,0.0,513383.0
1.0,4.56996488571167,-19.37550926208496,16.869243621826172,18.294355392456055,0.0,0.0,-0.0,-0.0,0.43139538168907166,0.9042335152626038,0.03649893030524254,3.052000045776367,-0.1526000052690506,0.366239994764328,0.0,513384.0
1.0,35.118690490722656,7.630870342254639,-35.549644470214844,-29.17407989501953,0.0,0.0,-0.0,-0.0,0.43139538168907166,0.9042335152626038,0.03649893030524254,3.052000045776367,-0.1526000052690506,0.366239994764328,0.0,513385.0
1.0,49.482139587402344,30.43509864807129,-66.40594482421875,-58.31342697143555,0.0,0.0,-0.0,-0.0,0.43139538168907166,0.9042335152626038,0.03649893030524254,3.052000045776367,-0.1526000052690506,0.366239994764328,0.0,513386.0
1.0,38.881431579589844,36.12913513183594,-59.078346252441406,-53.82384490966797,0.0,0.0,-0.0,-0.0,0.43139538168907166,0.9042335152626038,0.03649893030524254,3.052000045776367,-0.1526000052690506,0.366239994764328,0.0,513387.0
1.0,7.726309776306152,21.62765884399414,-18.70404624938965,-19.16277313232422,0.0,0.0,-0.0,-0.0,0.43139538168907166,0.9042335152626038,0.03649893030524254,3.052000045776367,-0.1526000052690506,0.366239994764328,0.0,513388.0
1.0,-28.790184020996094,-5.0538434982299805,31.16898536682129,25.369131088256836,0.0,0.0,-0.0,0.0,0.43139538168907166,0.9042335152626038,0.03649893030524254,3.052000045776367,-0.1526000052690506,0.366239994764328,0.0,513389.0
1.0,-51.64185333251953,-29.426042556762695,62.40727233886719,54.32757568359375,0.0,0.0,-0.0,0.0,0.43139538168907166,0.9042335152626038,0.03649893030524254,3.052000045776367,-0.1526000052690506,0.366239994764328,0.0,513390.0
1.0,-47.97759246826172,-38.19504165649414,57.81296920776367,51.64866638183594,0.0,0.0,-0.0,0.0,0.43139538168907166,0.9042335152626038,0.03649893030524254,3.052000045776367,-0.1526000052690506,0.366239994764328,0.0,513391.0
1.0,-19.463720321655273,-26.638477325439453,20.23711585998535,19.391054153442383,0.0,0.0,-0.0,0.0,0.43102917075157166,0.9017921090126038,0.03778066486120224,3.7692201137542725,-0.244159996509552,0.6561800241470337,0.0,513392.0
1.0,18.826366424560547,-1.11469304561615,-29.25590705871582,-24.043231964111328,0.0,0.0,-0.0,0.0,0.43102917075157166,0.9017921090126038,0.03778066486120224,3.7692201137542725,-0.244159996509552,0.6561800241470337,0.0,513393.0
1.0,46.89466094970703,24.755672454833984,-62.63602066040039,-53.96075439453125,0.0,0.0,-0.0,0.0,0.43102917075157166,0.9017921090126038,0.03778066486120224,3.7692201137542725,-0.244159996509552,0.6561800241470337,0.0,513394.0
1.0,49.80579376220703,37.497161865234375,-61.29853439331055,-53.73968505859375,0.0,0.0,-0.0,0.0,0.43102917075157166,0.9017921090126038,0.03778066486120224,3.7692201137542725,-0.244159996509552,0.6561800241470337,0.0,513395.0
1.0,26.085304260253906,30.62908935546875,-27.022380828857422,-24.561796188354492,0.0,0.0,-0.0,0.0,0.43102917075157166,0.9017921090126038,0.03778066486120224,3.7692201137542725,-0.244159996509552,0.6561800241470337,0.0,513396.0
1.0,-10.715962409973145,7.6136908531188965,21.7347412109375,17.80742073059082,0.0,0.0,-0.0,0.0,0.43102917075157166,0.9017921090126038,0.03778066486120224,3.7692201137542725,-0.244159996509552,0.6561800241470337,0.0,513397.0
1.0,-39.944644927978516,-19.687292098999023,60.584266662597656,52.24485778808594,0.0,0.0,-0.0,0.0,0.43102917075157166,0.9017921090126038,0.03778066486120224,3.7692201137542725,-0.244159996509552,0.6561800241470337,0.0,513398.0
1.0,-45.90717315673828,-36.534873962402344,69.20571899414062,60.65890884399414,0.0,0.0,-0.0,0.0,0.43102917075157166,0.9017921090126038,0.03778066486120224,3.7692201137542725,-0.244159996509552,0.6561800241470337,0.0,513399.0
1.0,-26.225805282592773,-33.46479415893555,41.644004821777344,37.12249755859375,0.0,0.0,-0.0,0.0,0.43102917075157166,0.9017921090126038,0.03778066486120224,3.7692201137542725,-0.244159996509552,0.6561800241470337,0.0,513400.0
1.0,7.729864597320557,-12.096526145935059,-8.5852632522583,-6.9752702713012695,0.0,0.0,-0.0,0.0,0.43102917075157166,0.9017921090126038,0.03778066486120224,3.7692201137542725,-0.244159996509552,0.6561800241470337,0.0,513401.0
1.0,37.021854400634766,15.70783519744873,-54.771522521972656,-47.904720306396484,0.0,0.0,-0.0,0.0,0.43218883872032166,0.8973975777626038,0.03692617639899254,4.059160232543945,0.7477399706840515,0.0763000026345253,0.0,513402.0
1.0,45.31046676635742,34.5472412109375,-71.4886703491211,-62.84584045410156,0.0,0.0,-0.0,0.0,0.43218883872032166,0.8973975777626038,0.03692617639899254,4.059160232543945,0.7477399706840515,0.0763000026345253,0.0,513403.0
1.0,28.777284622192383,34.36492156982422,-49.16032028198242,-43.40068054199219,0.0,0.0,-0.0,0.0,0.43218883872032166,0.8973975777626038,0.03692617639899254,4.059160232543945,0.7477399706840515,0.0763000026345253,0.0,513404.0
1.0,-2.8397035598754883,15.864630699157715,-0.10724110156297684,-0.5259807109832764,0.0,0.0,-0.0,0.0,0.43218883872032166,0.8973975777626038,0.03692617639899254,4.059160232543945,0.7477399706840515,0.0763000026345253,0.0,513405.0
1.0,-33.63394546508789,-10.763442039489746,47.88864517211914,41.58257293701172,0.0,0.0,-0.0,0.0,0.43218883872032166,0.8973975777626038,0.03692617639899254,4.059160232543945,0.7477399706840515,0.0763000026345253,0.0,513406.0
1.0,-48.58478927612305,-31.298675537109375,67.33824157714844,59.016387939453125,0.0,0.0,-0.0,0.0,0.43218883872032166,0.8973975777626038,0.03692617639899254,4.059160232543945,0.7477399706840515,0.0763000026345253,0.0,513407.0
1.0,-39.581024169921875,-34.63431930541992,47.46686553955078,42.12873077392578,0.0,0.0,-0.0,0.0,0.43218883872032166,0.8973975777626038,0.03692617639899254,4.059160232543945,0.7477399706840515,0.0763000026345253,0.0,513408.0
1.0,-10.306756019592285,-18.974912643432617,0.2885420620441437,0.9903460741043091,0.0,0.0,-0.0,0.0,0.43218883872032166,0.8973975777626038,0.03692617639899254,4.059160232543945,0.7477399706840515,0.0763000026345253,0.0,513409.0
1.0,24.464265823364258,7.072052001953125,-47.28261947631836,-41.09423828125,0.0,0.0,-0.0,0.0,0.43218883872032166,0.8973975777626038,0.03692617639899254,4.059160232543945,0.7477399706840515,0.0763000026345253,0.0,513410.0
1.0,46.10178756713867,29.096515655517578,-68.34927368164062,-60.42989730834961,0.0,0.0,-0.0,0.0,0.43218883872032166,0.8973975777626038,0.03692617639899254,4.059160232543945,0.7477399706840515,0.0763000026345253,0.0,513411.0
1.0,43.31089782714844,34.870361328125,-50.8013801574707,-45.778079986572266,0.0,0.0,-0.0,0.0,0.43194469809532166,0.8973365426063538,0.03570547327399254,3.876039981842041,0.4730600118637085,-0.9613800048828125,0.0,513412.0
1.0,19.236595153808594,21.349658966064453,-4.170668601989746,-4.766489505767822,0.0,0.0,-0.0,0.0,0.43194469809532166,0.8973365426063538,0.03570547327399254,3.876039981842041,0.4730600118637085,-0.9613800048828125,0.0,513413.0
1.0,-12.375398635864258,-3.947946310043335,46.435428619384766,40.6529541015625,0.0,0.0,-0.0,0.0,0.43194469809532166,0.8973365426063538,0.03570547327399254,3.876039981842041,0.4730600118637085,-0.9613800048828125,0.0,513414.0
1.0,-36.06584167480469,-27.151546478271484,73.25751495361328,65.4227523803711,0.0,0.0,-0.0,0.0,0.43194469809532166,0.8973365426063538,0.03570547327399254,3.876039981842041,0.4730600118637085,-0.9613800048828125,0.0,513415.0
1.0,-40.666343688964844,-35.57415008544922,60.69598388671875,54.990013122558594,0.0,0.0,-0.0,0.0,0.43194469809532166,0.8973365426063538,0.03570547327399254,3.876039981842041,0.4730600118637085,-0.9613800048828125,0.0,513416.0
1.0,-23.30310821533203,-24.83197021484375,15.593910217285156,15.026185035705566,0.0,0.0,-0.0,0.0,0.43194469809532166,0.8973365426063538,0.03570547327399254,3.876039981842041,0.4730600118637085,-0.9613800048828125,0.0,513417.0
1.0,7.533320426940918,-0.8929255604743958,-37.228538513183594,-32.31000518798828,0.0,0.0,-0.0,0.0,0.43194469809532166,0.8973365426063538,0.03570547327399254,3.876039981842041,0.4730600118637085,-0.9613800048828125,0.0,513418.0
1.0,34.74825668334961,23.2659912109375,-69.49888610839844,-61.60337829589844,0.0,0.0,-0.0,0.0,0.43194469809532166,0.8973365426063538,0.03570547327399254,3.876039981842041,0.4730600118637085,-0.9613800048828125,0.0,513419.0
1.0,43.13896179199219,34.43191146850586,-63.856563568115234,-57.26674270629883,0.0,0.0,-0.0,0.0,0.43194469809532166,0.8973365426063538,0.03570547327399254,3.876039981842041,0.4730600118637085,-0.9613800048828125,0.0,513420.0
1.0,28.30739974975586,26.691980361938477,-23.834625244140625,-22.345735549926758,0.0,0.0,-0.0,0.0,0.43194469809532166,0.8973365426063538,0.03570547327399254,3.876039981842041,0.4730600118637085,-0.9613800048828125,0.0,513421.0
1.0,-2.519763469696045,4.668181419372559,27.83821678161621,23.103391647338867,0.0,0.0,-0.0,0.0,0.43090710043907166,0.8984962105751038,0.03521719574928284,3.9828600883483887,-0.4120199978351593,-1.1292400360107422,0.0,513422.0
1.0,-33.34090805053711,-19.588184356689453,63.331844329833984,54.655059814453125,0.0,0.0,-0.0,0.0,0.43090710043907166,0.8984962105751038,0.03521719574928284,3.9828600883483887,-0.4120199978351593,-1.1292400360107422,0.0,513423.0
1.0,-46.65399932861328,-33.02040481567383,64.41264343261719,56.500946044921875,0.0,0.0,-0.0,0.0,0.43090710043907166,0.8984962105751038,0.03521719574928284,3.9828600883483887,-0.4120199978351593,-1.1292400360107422,0.0,513424.0
1.0,-35.11824035644531,-28.280635833740234,30.154085159301758,27.609413146972656,0.0,0.0,-0.0,0.0,0.43090710043907166,0.8984962105751038,0.03521719574928284,3.9828600883483887,-0.4120199978351593,-1.1292400360107422,0.0,513425.0
1.0,-6.215821266174316,-7.748584747314453,-22.446720123291016,-17.98253059387207,0.0,0.0,-0.0,0.0,0.43090710043907166,0.8984962105751038,0.03521719574928284,3.9828600883483887,-0.4120199978351593,-1.1292400360107422,0.0,513426.0
1.0,23.882720947265625,17.58987808227539,-65.1739501953125,-56.03913497924805,0.0,0.0,-0.0,0.0,0.43090710043907166,0.8984962105751038,0.03521719574928284,3.9828600883483887,-0.4120199978351593,-1.1292400360107422,0.0,513427.0
1.0,39.614810943603516,33.79075241088867,-73.37886047363281,-64.27708435058594,0.0,0.0,-0.0,0.0,0.43090710043907166,0.8984962105751038,0.03521719574928284,3.9828600883483887,-0.4120199978351593,-1.1292400360107422,0.0,513428.0
1.0,33.82609176635742,31.711950302124023,-41.90000915527344,-37.10615158081055,0.0,0.0,-0.0,0.0,0.43090710043907166,0.8984962105751038,0.03521719574928284,3.9828600883483887,-0.4120199978351593,-1.1292400360107422,0.0,513429.0
1.0,11.100412368774414,12.267081260681152,12.338522911071777,10.83553409576416,0.0,0.0,-0.0,0.0,0.43090710043907166,0.8984962105751038,0.03521719574928284,3.9828600883483887,-0.4120199978351593,-1.1292400360107422,0.0,513430.0
1.0,-15.767656326293945,-14.312334060668945,61.397396087646484,54.429630279541016,0.0,0.0,-0.0,0.0,0.43090710043907166,0.8984962105751038,0.03521719574928284,3.9828600883483887,-0.4120199978351593,-1.1292400360107422,0.0,513431.0
1.0,-32.67561340332031,-33.77720642089844,79.77823638916016,70.74283599853516,0.0,0.0,-0.0,0.0,0.43115124106407166,0.8985572457313538,0.03662100061774254,5.264699935913086,0.091559998691082,-1.4191800355911255,0.0,513432.0
1.0,-30.617258071899414,-35.27775955200195,56.88322448730469,50.26725387573242,0.0,0.0,-0.0,0.0,0.43115124106407166,0.8985572457313538,0.03662100061774254,5.264699935913086,0.091559998691082,-1.4191800355911255,0.0,513433.0
1.0,-10.447991371154785,-17.516984939575195,3.9970431327819824,3.009096622467041,0.0,0.0,-0.0,0.0,0.43115124106407166,0.8985572457313538,0.03662100061774254,5.264699935913086,0.091559998691082,-1.4191800355911255,0.0,513434.0
1.0,16.488431930541992,10.202153205871582,-51.047119140625,-46.17355728149414,0.0,0.0,-0.0,0.0,0.43115124106407166,0.8985572457313538,0.03662100061774254,5.264699935913086,0.091559998691082,-1.4191800355911255,0.0,513435.0
1.0,34.222599029541016,32.634456634521484,-78.56822967529297,-70.66358184814453,0.0,0.0,-0.0,0.0,0.43115124106407166,0.8985572457313538,0.03662100061774254,5.264699935913086,0.091559998691082,-1.4191800355911255,0.0,513436.0
1.0,32.183082580566406,37.323509216308594,-63.76127624511719,-57.17585372924805,0.0,0.0,-0.0,0.0,0.43115124106407166,0.8985572457313538,0.03662100061774254,5.264699935913086,0.091559998691082,-1.4191800355911255,0.0,513437.0
1.0,11.516146659851074,22.04010009765625,-15.39060115814209,-13.770560264587402,0.0,0.0,-0.0,0.0,0.43115124106407166,0.8985572457313538,0.03662100061774254,5.264699935913086,0.091559998691082,-1.4191800355911255,0.0,513438.0
1.0,-16.553876876831055,-4.765607833862305,40.35904312133789,35.882450103759766,0.0,0.0,-0.0,0.0,0.43115124106407166,0.8985572457313538,0.03662100061774254,5.264699935913086,0.091559998691082,-1.4191800355911255,0.0,513439.0
1.0,-36.65020751953125,-28.98859214782715,73.99197387695312,65.67296600341797,0.0,0.0,-0.0,0.0,0.43115124106407166,0.8985572457313538,0.03662100061774254,5.264699935913086,0.091559998691082,-1.4191800355911255,0.0,513440.0
1.0,-37.0296745300293,-37.76233673095703,67.4409408569336,59.96623611450195,0.0,0.0,-0.0,0.0,0.43115124106407166,0.8985572457313538,0.03662100061774254,5.264699935913086,0.091559998691082,-1.4191800355911255,0.0,513441.0
1.0,-16.649938583374023,-26.130308151245117,24.27171516418457,22.05313491821289,0.0,0.0,0.0,0.0,0.42986950278282166,0.8994727730751038,0.03729238361120224,4.181240081787109,0.061039999127388,-1.358139991760254,0.0,513442.0
1.0,13.732173919677734,-0.12481126934289932,-32.24199676513672,-27.608606338500977,0.0,0.0,0.0,0.0,0.42986950278282166,0.8994727730751038,0.03729238361120224,4.181240081787109,0.061039999127388,-1.358139991760254,0.0,513443.0
1.0,36.888458251953125,26.0439453125,-71.75370025634766,-62.31880187988281,0.0,0.0,0.0,0.0,0.42986950278282166,0.8994727730751038,0.03729238361120224,4.181240081787109,0.061039999127388,-1.358139991760254,0.0,513444.0
1.0,38.669708251953125,37.8405647277832,-73.17789459228516,-63.6336784362793,0.0,0.0,0.0,0.0,0.42986950278282166,0.8994727730751038,0.03729238361120224,4.181240081787109,0.061039999127388,-1.358139991760254,0.0,513445.0
1.0,17.803037643432617,28.813751220703125,-36.3417854309082,-31.71071434020996,0.0,0.0,0.0,0.0,0.42986950278282166,0.8994727730751038,0.03729238361120224,4.181240081787109,0.061039999127388,-1.358139991760254,0.0,513446.0
1.0,-12.866988182067871,3.9318161010742188,19.365726470947266,16.344221115112305,0.0,0.0,0.0,0.0,0.42986950278282166,0.8994727730751038,0.03729238361120224,4.181240081787109,0.061039999127388,-1.358139991760254,0.0,513447.0
1.0,-35.711910247802734,-23.401897430419922,65.6707763671875,56.17515182495117,0.0,0.0,0.0,0.0,0.42986950278282166,0.8994727730751038,0.03729238361120224,4.181240081787109,0.061039999127388,-1.358139991760254,0.0,513448.0
1.0,-38.81584167480469,-38.366031646728516,78.23921203613281,67.11329650878906,0.0,0.0,0.0,0.0,0.42986950278282166,0.8994727730751038,0.03729238361120224,4.181240081787109,0.061039999127388,-1.358139991760254,0.0,513449.0
1.0,-20.828256607055664,-32.73491668701172,49.53762435913086,42.77717590332031,0.0,0.0,0.0,0.0,0.42986950278282166,0.8994727730751038,0.03729238361120224,4.181240081787109,0.061039999127388,-1.358139991760254,0.0,513450.0
1.0,9.45887279510498,-9.516745567321777,-5.179010391235352,-4.0835981369018555,0.0,0.0,0.0,0.0,0.42986950278282166,0.8994727730751038,0.03729238361120224,4.181240081787109,0.061039999127388,-1.358139991760254,0.0,513451.0
1.0,37.03325653076172,18.588394165039062,-55.190155029296875,-47.34305191040039,0.0,0.0,0.0,0.0,0.43170055747032166,0.9009376168251038,0.03808584064245224,2.960439920425415,-0.3357200026512146,-1.8006800413131714,0.0,513452.0
1.0,47.23187255859375,36.11581802368164,-72.21178436279297,-62.30262756347656,0.0,0.0,0.0,0.0,0.43170055747032166,0.9009376168251038,0.03808584064245224,2.960439920425415,-0.3357200026512146,-1.8006800413131714,0.0,513453.0
1.0,33.560462951660156,33.87666702270508,-48.22932052612305,-41.515811920166016,0.0,0.0,0.0,0.0,0.43170055747032166,0.9009376168251038,0.03808584064245224,2.960439920425415,-0.3357200026512146,-1.8006800413131714,0.0,513454.0
1.0,1.7501842975616455,13.90854263305664,0.7717148065567017,1.2358362674713135,0.0,0.0,0.0,0.0,0.43170055747032166,0.9009376168251038,0.03808584064245224,2.960439920425415,-0.3357200026512146,-1.8006800413131714,0.0,513455.0
1.0,-32.69782257080078,-12.758374214172363,46.71222686767578,41.1816520690918,0.0,0.0,0.0,0.0,0.43170055747032166,0.9009376168251038,0.03808584064245224,2.960439920425415,-0.3357200026512146,-1.8006800413131714,0.0,513456.0
1.0,-51.606075286865234,-32.106117248535156,64.91105651855469,56.572696685791016,0.0,0.0,0.0,0.0,0.43170055747032166,0.9009376168251038,0.03808584064245224,2.960439920425415,-0.3357200026512146,-1.8006800413131714,0.0,513457.0
1.0,-44.260868072509766,-33.99798583984375,45.85905838012695,39.344268798828125,0.0,0.0,0.0,0.0,0.43170055747032166,0.9009376168251038,0.03808584064245224,2.960439920425415,-0.3357200026512146,-1.8006800413131714,0.0,513458.0
1.0,-14.444595336914062,-17.41921615600586,-0.04636361449956894,-1.0658109188079834,0.0,0.0,0.0,0.0,0.43170055747032166,0.9009376168251038,0.03808584064245224,2.960439920425415,-0.3357200026512146,-1.8006800413131714,0.0,513459.0
1.0,21.727083206176758,8.917141914367676,-47.76987838745117,-42.74123001098633,0.0,0.0,0.0,0.0,0.43170055747032166,0.9009376168251038,0.03808584064245224,2.960439920425415,-0.3357200026512146,-1.8006800413131714,0.0,513460.0
1.0,44.8596076965332,30.71995735168457,-70.2367935180664,-62.162723541259766,0.0,0.0,0.0,0.0,0.43170055747032166,0.9009376168251038,0.03808584064245224,2.960439920425415,-0.3357200026512146,-1.8006800413131714,0.0,513461.0
1.0,43.24401092529297,35.88099670410156,-53.67439270019531,-47.341400146484375,0.0,0.0,0.0,0.0,0.43377575278282166,0.9002051949501038,0.03753652423620224,4.516960144042969,-0.2899399995803833,-0.9919000267982483,0.0,513462.0
1.0,19.395971298217773,21.67821502685547,-6.427631378173828,-5.591435432434082,0.0,0.0,0.0,0.0,0.43377575278282166,0.9002051949501038,0.03753652423620224,4.516960144042969,-0.2899399995803833,-0.9919000267982483,0.0,513463.0
1.0,-12.70315170288086,-3.9905083179473877,46.35983657836914,41.053524017333984,0.0,0.0,0.0,0.0,0.43377575278282166,0.9002051949501038,0.03753652423620224,4.516960144042969,-0.2899399995803833,-0.9919000267982483,0.0,513464.0
1.0,-36.296749114990234,-27.17511558532715,76.01594543457031,67.4538803100586,0.0,0.0,0.0,0.0,0.43377575278282166,0.9002051949501038,0.03753652423620224,4.516960144042969,-0.2899399995803833,-0.9919000267982483,0.0,513465.0
1.0,-40.037715911865234,-35.380218505859375,65.20172882080078,58.23399353027344,0.0,0.0,0.0,0.0,0.43377575278282166,0.9002051949501038,0.03753652423620224,4.516960144042969,-0.2899399995803833,-0.9919000267982483,0.0,513466.0
1.0,-22.52523422241211,-24.363447189331055,18.823440551757812,17.44875144958496,0.0,0.0,0.0,0.0,0.43377575278282166,0.9002051949501038,0.03753652423620224,4.516960144042969,-0.2899399995803833,-0.9919000267982483,0.0,513467.0
1.0,7.114624500274658,-0.17868521809577942,-38.28580093383789,-33.097652435302734,0.0,0.0,0.0,0.0,0.43377575278282166,0.9002051949501038,0.03753652423620224,4.516960144042969,-0.2899399995803833,-0.9919000267982483,0.0,513468.0
1.0,32.78697204589844,23.95819664001465,-75.07573699951172,-65.89820861816406,0.0,0.0,0.0,0.0,0.43377575278282166,0.9002051949501038,0.03753652423620224,4.516960144042969,-0.2899399995803833,-0.9919000267982483,0.0,513469.0
1.0,40.03249740600586,34.62702941894531,-71.22569274902344,-62.91834259033203,0.0,0.0,0.0,0.0,0.43377575278282166,0.9002051949501038,0.03753652423620224,4.516960144042969,-0.2899399995803833,-0.9919000267982483,0.0,513470.0
1.0,25.05069923400879,25.898916244506836,-29.29218864440918,-26.242475509643555,0.0,0.0,0.0,-0.0,0.43377575278282166,0.9002051949501038,0.03753652423620224,4.516960144042969,-0.2899399995803833,-0.9919000267982483,0.0,513471.0
1.0,-3.7225522994995117,2.444092273712158,27.290205001831055,23.708650588989258,0.0,0.0,0.0,-0.0,0.43347057700157166,0.8989844918251038,0.03741445392370224,5.463079929351807,0.1678600013256073,-1.4496999979019165,0.0,513472.0
1.0,-30.73387336730957,-23.210615158081055,68.31058502197266,60.240196228027344,0.0,0.0,0.0,-0.0,0.43347057700157166,0.8989844918251038,0.03741445392370224,5.463079929351807,0.1678600013256073,-1.4496999979019165,0.0,513473.0
1.0,-40.65431594848633,-36.91255187988281,72.74614715576172,64.39397430419922,0.0,0.0,0.0,-0.0,0.43347057700157166,0.8989844918251038,0.03741445392370224,5.463079929351807,0.1678600013256073,-1.4496999979019165,0.0,513474.0
1.0,-27.22879409790039,-30.559812545776367,38.96578598022461,34.42680740356445,0.0,0.0,0.0,-0.0,0.43347057700157166,0.8989844918251038,0.03741445392370224,5.463079929351807,0.1678600013256073,-1.4496999979019165,0.0,513475.0
1.0,1.3980743885040283,-7.220837593078613,-15.487908363342285,-14.100078582763672,0.0,0.0,0.0,-0.0,0.43347057700157166,0.8989844918251038,0.03741445392370224,5.463079929351807,0.1678600013256073,-1.4496999979019165,0.0,513476.0
1.0,27.461284637451172,20.226852416992188,-62.63127136230469,-56.245391845703125,0.0,0.0,0.0,-0.0,0.43347057700157166,0.8989844918251038,0.03741445392370224,5.463079929351807,0.1678600013256073,-1.4496999979019165,0.0,513477.0
1.0,35.641170501708984,36.4947509765625,-77.2518081665039,-69.46072387695312,0.0,0.0,0.0,-0.0,0.43347057700157166,0.8989844918251038,0.03741445392370224,5.463079929351807,0.1678600013256073,-1.4496999979019165,0.0,513478.0
1.0,23.096181869506836,32.95662307739258,-50.71766662597656,-45.830745697021484,0.0,0.0,0.0,-0.0,0.43347057700157166,0.8989844918251038,0.03741445392370224,5.463079929351807,0.1678600013256073,-1.4496999979019165,0.0,513479.0
1.0,-0.5360071063041687,12.066332817077637,3.520653247833252,2.7603046894073486,0.0,0.0,0.0,-0.0,0.43347057700157166,0.8989844918251038,0.03741445392370224,5.463079929351807,0.1678600013256073,-1.4496999979019165,0.0,513480.0
1.0,-21.321598052978516,-14.89201831817627,57.015899658203125,50.92502212524414,0.0,0.0,0.0,-0.0,0.43347057700157166,0.8989844918251038,0.03741445392370224,5.463079929351807,0.1678600013256073,-1.4496999979019165,0.0,513481.0
1.0,-28.577972412109375,-33.51509475708008,81.0105972290039,72.95610046386719,0.0,0.0,0.0,-0.0,0.43286022543907166,0.9000220894813538,0.03619375452399254,5.371520042419434,0.4578000009059906,-1.2818399667739868,0.0,513482.0
1.0,-19.045116424560547,-33.583641052246094,62.29059982299805,56.75954818725586,0.0,0.0,0.0,-0.0,0.43286022543907166,0.9000220894813538,0.03619375452399254,5.371520042419434,0.4578000009059906,-1.2818399667739868,0.0,513483.0
1.0,1.8536555767059326,-14.939979553222656,10.7741060256958,10.776104927062988,0.0,0.0,0.0,-0.0,0.43286022543907166,0.9000220894813538,0.03619375452399254,5.371520042419434,0.4578000009059906,-1.2818399667739868,0.0,513484.0
1.0,22.45632553100586,12.332108497619629,-46.4762077331543,-40.93107223510742,0.0,0.0,0.0,-0.0,0.43286022543907166,0.9000220894813538,0.03619375452399254,5.371520042419434,0.4578000009059906,-1.2818399667739868,0.0,513485.0
1.0,30.694534301757812,33.22932815551758,-79.01728820800781,-70.91533660888672,0.0,0.0,0.0,-0.0,0.43286022543907166,0.9000220894813538,0.03619375452399254,5.371520042419434,0.4578000009059906,-1.2818399667739868,0.0,513486.0
1.0,21.420486450195312,36.14139175415039,-69.16217041015625,-62.921836853027344,0.0,0.0,0.0,-0.0,0.43286022543907166,0.9000220894813538,0.03619375452399254,5.371520042419434,0.4578000009059906,-1.2818399667739868,0.0,513487.0
1.0,-0.505768895149231,19.52981948852539,-22.617382049560547,-21.512643814086914,0.0,0.0,0.0,-0.0,0.43286022543907166,0.9000220894813538,0.03619375452399254,5.371520042419434,0.4578000009059906,-1.2818399667739868,0.0,513488.0
1.0,-23.537097930908203,-7.813508987426758,35.433929443359375,31.105484008789062,0.0,0.0,0.0,-0.0,0.43286022543907166,0.9000220894813538,0.03619375452399254,5.371520042419434,0.4578000009059906,-1.2818399667739868,0.0,513489.0
1.0,-35.516944885253906,-31.667081832885742,73.97195434570312,66.79605102539062,0.0,0.0,0.0,-0.0,0.43286022543907166,0.9000220894813538,0.03619375452399254,5.371520042419434,0.4578000009059906,-1.2818399667739868,0.0,513490.0
1.0,-30.194358825683594,-39.34266662597656,71.75082397460938,65.62944030761719,0.0,0.0,0.0,-0.0,0.43286022543907166,0.9000220894813538,0.03619375452399254,5.371520042419434,0.4578000009059906,-1.2818399667739868,0.0,513491.0
1.0,-10.075687408447266,-26.482177734375,29.703266143798828,27.967782974243164,0.0,0.0,0.0,-0.0,0.43286022543907166,0.9015479683876038,0.034179601818323135,3.7997400760650635,0.1678600013256073,-1.1597599983215332,0.0,513492.0
1.0,15.913393020629883,0.33237817883491516,-28.706403732299805,-24.859731674194336,0.0,0.0,0.0,-0.0,0.43286022543907166,0.9015479683876038,0.034179601818323135,3.7997400760650635,0.1678600013256073,-1.1597599983215332,0.0,513493.0
1.0,35.73624038696289,27.10511589050293,-70.50212860107422,-62.98014831542969,0.0,0.0,0.0,-0.0,0.43286022543907166,0.9015479683876038,0.034179601818323135,3.7997400760650635,0.1678600013256073,-1.1597599983215332,0.0,513494.0
1.0,38.50704574584961,39.94648361206055,-72.59091186523438,-65.69751739501953,0.0,0.0,0.0,-0.0,0.43286022543907166,0.9015479683876038,0.034179601818323135,3.7997400760650635,0.1678600013256073,-1.1597599983215332,0.0,513495.0
1.0,20.997417449951172,32.375614166259766,-35.52592468261719,-33.292327880859375,0.0,0.0,0.0,-0.0,0.43286022543907166,0.9015479683876038,0.034179601818323135,3.7997400760650635,0.1678600013256073,-1.1597599983215332,0.0,513496.0
1.0,-8.653582572937012,8.349837303161621,19.2443904876709,15.48318099975586,0.0,0.0,0.0,-0.0,0.43286022543907166,0.9015479683876038,0.034179601818323135,3.7997400760650635,0.1678600013256073,-1.1597599983215332,0.0,513497.0
1.0,-34.52349853515625,-19.76801872253418,62.93768310546875,54.88957977294922,0.0,0.0,0.0,-0.0,0.43286022543907166,0.9015479683876038,0.034179601818323135,3.7997400760650635,0.1678600013256073,-1.1597599983215332,0.0,513498.0
1.0,-41.796180725097656,-37.20118713378906,73.18484497070312,64.55835723876953,0.0,0.0,0.0,-0.0,0.43286022543907166,0.9015479683876038,0.034179601818323135,3.7997400760650635,0.1678600013256073,-1.1597599983215332,0.0,513499.0
1.0,-25.654788970947266,-34.763694763183594,44.75974655151367,39.81398391723633,0.0,0.0,0.0,-0.0,0.43286022543907166,0.9015479683876038,0.034179601818323135,3.7997400760650635,0.1678600013256073,-1.1597599983215332,0.0,513500.0
1.0,5.31174898147583,-14.054749488830566,-7.41062068939209,-5.734173774719238,0.0,0.0,0.0,-0.0,0.43286022543907166,0.9015479683876038,0.034179601818323135,3.7997400760650635,0.1678600013256073,-1.1597599983215332,0.0,513501.0
1.0,33.52885055541992,13.503856658935547,-55.61260986328125,-47.553810119628906,0.0,0.0,0.0,-0.0,0.43334850668907166,0.9012427926063538,0.033996496349573135,2.899399995803833,0.015259999781847,-1.922760009765625,0.0,513502.0
1.0,42.83317565917969,32.74850845336914,-73.41830444335938,-62.846683502197266,0.0,0.0,0.0,-0.0,0.43334850668907166,0.9012427926063538,0.033996496349573135,2.899399995803833,0.015259999781847,-1.922760009765625,0.0,513503.0
1.0,28.66255760192871,33.32967758178711,-50.751014709472656,-43.256927490234375,0.0,0.0,0.0,-0.0,0.43334850668907166,0.9012427926063538,0.033996496349573135,2.899399995803833,0.015259999781847,-1.922760009765625,0.0,513504.0
1.0,-0.44757920503616333,15.530104637145996,-0.39298298954963684,-0.007557168137282133,0.0,0.0,0.0,-0.0,0.43334850668907166,0.9012427926063538,0.033996496349573135,2.899399995803833,0.015259999781847,-1.922760009765625,0.0,513505.0
1.0,-29.324657440185547,-10.60897159576416,49.66472244262695,42.96992874145508,0.0,0.0,0.0,-0.0,0.43334850668907166,0.9012427926063538,0.033996496349573135,2.899399995803833,0.015259999781847,-1.922760009765625,0.0,513506.0
1.0,-43.352394104003906,-30.816787719726562,71.87650299072266,62.23380661010742,0.0,0.0,0.0,-0.0,0.43334850668907166,0.9012427926063538,0.033996496349573135,2.899399995803833,0.015259999781847,-1.922760009765625,0.0,513507.0
1.0,-35.09126281738281,-33.90080642700195,54.13222885131836,47.085845947265625,0.0,0.0,0.0,-0.0,0.43334850668907166,0.9012427926063538,0.033996496349573135,2.899399995803833,0.015259999781847,-1.922760009765625,0.0,513508.0
1.0,-8.334199905395508,-18.002099990844727,6.562226295471191,5.599349021911621,0.0,0.0,0.0,-0.0,0.43334850668907166,0.9012427926063538,0.033996496349573135,2.899399995803833,0.015259999781847,-1.922760009765625,0.0,513509.0
1.0,23.58522605895996,8.130341529846191,-44.1445426940918,-39.2462158203125,0.0,0.0,0.0,-0.0,0.43334850668907166,0.9012427926063538,0.033996496349573135,2.899399995803833,0.015259999781847,-1.922760009765625,0.0,513510.0
1.0,43.93131637573242,29.793426513671875,-69.3722915649414,-61.94717025756836,0.0,0.0,0.0,-0.0,0.43334850668907166,0.9012427926063538,0.033996496349573135,2.899399995803833,0.015259999781847,-1.922760009765625,0.0,513511.0
1.0,41.64838409423828,34.737178802490234,-55.08259582519531,-49.58583068847656,0.0,0.0,0.0,-0.0,0.43298229575157166,0.8996558785438538,0.033752355724573135,3.876039981842041,0.8087800145149231,-1.5565199851989746,0.0,513512.0
1.0,18.185733795166016,20.423540115356445,-9.868789672851562,-9.454273223876953,0.0,0.0,0.0,-0.0,0.43298229575157166,0.8996558785438538,0.033752355724573135,3.876039981842041,0.8087800145149231,-1.5565199851989746,0.0,513513.0
1.0,-13.869010925292969,-4.934245586395264,41.22282791137695,36.25323486328125,0.0,0.0,0.0,-0.0,0.43298229575157166,0.8996558785438538,0.033752355724573135,3.876039981842041,0.8087800145149231,-1.5565199851989746,0.0,513514.0
1.0,-38.10816955566406,-27.307775497436523,70.14888000488281,62.52528762817383,0.0,0.0,0.0,-0.0,0.43298229575157166,0.8996558785438538,0.033752355724573135,3.876039981842041,0.8087800145149231,-1.5565199851989746,0.0,513515.0
1.0,-42.467681884765625,-34.46731185913086,60.128787994384766,54.37980651855469,0.0,0.0,0.0,-0.0,0.43298229575157166,0.8996558785438538,0.033752355724573135,3.876039981842041,0.8087800145149231,-1.5565199851989746,0.0,513516.0
1.0,-24.995384216308594,-22.529010772705078,15.660489082336426,15.470584869384766,0.0,0.0,0.0,-0.0,0.43298229575157166,0.8996558785438538,0.033752355724573135,3.876039981842041,0.8087800145149231,-1.5565199851989746,0.0,513517.0
1.0,4.5596842765808105,2.1581740379333496,-39.49916076660156,-33.69150161743164,0.0,0.0,0.0,-0.0,0.43298229575157166,0.8996558785438538,0.033752355724573135,3.876039981842041,0.8087800145149231,-1.5565199851989746,0.0,513518.0
1.0,29.216176986694336,26.131919860839844,-75.09458923339844,-66.31880950927734,0.0,0.0,0.0,-0.0,0.43298229575157166,0.8996558785438538,0.033752355724573135,3.876039981842041,0.8087800145149231,-1.5565199851989746,0.0,513519.0
1.0,35.490142822265625,35.853973388671875,-70.76181030273438,-63.68247985839844,0.0,0.0,0.0,-0.0,0.43298229575157166,0.8996558785438538,0.033752355724573135,3.876039981842041,0.8087800145149231,-1.5565199851989746,0.0,513520.0
1.0,21.945919036865234,25.766706466674805,-28.217788696289062,-26.65359115600586,0.0,0.0,0.0,-0.0,0.43298229575157166,0.8996558785438538,0.033752355724573135,3.876039981842041,0.8087800145149231,-1.5565199851989746,0.0,513521.0
1.0,-2.3140664100646973,1.328635573387146,29.966064453125,24.91364288330078,0.0,0.0,0.0,-0.0,0.43304333090782166,0.8997169137001038,0.03430166840553284,2.10588002204895,0.4730600118637085,-1.5870399475097656,0.0,513522.0
1.0,-23.954158782958984,-24.444616317749023,73.29942321777344,63.84537887573242,0.0,0.0,0.0,-0.0,0.43304333090782166,0.8997169137001038,0.03430166840553284,2.10588002204895,0.4730600118637085,-1.5870399475097656,0.0,513523.0
1.0,-31.03212547302246,-37.658714294433594,79.03683471679688,69.85228729248047,0.0,0.0,-0.0,-0.0,0.43304333090782166,0.8997169137001038,0.03430166840553284,2.10588002204895,0.4730600118637085,-1.5870399475097656,0.0,513524.0
1.0,-19.647491455078125,-30.8897762298584,43.7911491394043,39.81220245361328,0.0,0.0,-0.0,-0.0,0.43304333090782166,0.8997169137001038,0.03430166840553284,2.10588002204895,0.4730600118637085,-1.5870399475097656,0.0,513525.0
1.0,2.957115888595581,-7.424749374389648,-14.866347312927246,-11.204412460327148,0.0,0.0,-0.0,-0.0,0.43304333090782166,0.8997169137001038,0.03430166840553284,2.10588002204895,0.4730600118637085,-1.5870399475097656,0.0,513526.0
1.0,23.93375015258789,20.26296615600586,-66.21165466308594,-56.66937255859375,0.0,0.0,-0.0,-0.0,0.43304333090782166,0.8997169137001038,0.03430166840553284,2.10588002204895,0.4730600118637085,-1.5870399475097656,0.0,513527.0
1.0,32.6292610168457,36.976417541503906,-81.5372314453125,-71.18791961669922,0.0,0.0,-0.0,-0.0,0.43304333090782166,0.8997169137001038,0.03430166840553284,2.10588002204895,0.4730600118637085,-1.5870399475097656,0.0,513528.0
1.0,24.89739227294922,33.69908142089844,-52.22262954711914,-46.41494369506836,0.0,0.0,-0.0,-0.0,0.43304333090782166,0.8997169137001038,0.03430166840553284,2.10588002204895,0.4730600118637085,-1.5870399475097656,0.0,513529.0
1.0,4.178746700286865,12.802210807800293,4.649426460266113,3.224898338317871,0.0,0.0,-0.0,-0.0,0.43304333090782166,0.8997169137001038,0.03430166840553284,2.10588002204895,0.4730600118637085,-1.5870399475097656,0.0,513530.0
1.0,-19.989830017089844,-14.352707862854004,57.84254455566406,50.32792282104492,0.0,0.0,-0.0,-0.0,0.43304333090782166,0.8997169137001038,0.03430166840553284,2.10588002204895,0.4730600118637085,-1.5870399475097656,0.0,513531.0
1.0,-35.34426498413086,-33.72249221801758,78.86508178710938,69.52466583251953,0.0,0.0,-0.0,-0.0,0.43255504965782166,0.8994117379188538,0.03613271936774254,3.2351200580596924,1.2208000421524048,-2.655240058898926,0.0,513532.0
1.0,-32.58780288696289,-35.16899490356445,56.72344970703125,50.624298095703125,0.0,0.0,-0.0,-0.0,0.43255504965782166,0.8994117379188538,0.03613271936774254,3.2351200580596924,1.2208000421524048,-2.655240058898926,0.0,513533.0
1.0,-11.689921379089355,-17.521318435668945,4.211737632751465,4.350618839263916,0.0,0.0,-0.0,-0.0,0.43255504965782166,0.8994117379188538,0.03613271936774254,3.2351200580596924,1.2208000421524048,-2.655240058898926,0.0,513534.0
1.0,15.833574295043945,10.211664199829102,-50.150516510009766,-44.40620040893555,0.0,0.0,-0.0,-0.0,0.43255504965782166,0.8994117379188538,0.03613271936774254,3.2351200580596924,1.2208000421524048,-2.655240058898926,0.0,513535.0
1.0,32.96549987792969,32.76493835449219,-77.86672973632812,-70.0954818725586,0.0,0.0,-0.0,-0.0,0.43255504965782166,0.8994117379188538,0.03613271936774254,3.2351200580596924,1.2208000421524048,-2.655240058898926,0.0,513536.0
1.0,30.046871185302734,37.291080474853516,-64.36318969726562,-58.89613723754883,0.0,0.0,-0.0,-0.0,0.43255504965782166,0.8994117379188538,0.03613271936774254,3.2351200580596924,1.2208000421524048,-2.655240058898926,0.0,513537.0
1.0,11.280434608459473,21.365524291992188,-16.028331756591797,-15.757745742797852,0.0,0.0,-0.0,-0.0,0.43255504965782166,0.8994117379188538,0.03613271936774254,3.2351200580596924,1.2208000421524048,-2.655240058898926,0.0,513538.0
1.0,-11.3812894821167,-6.1375651359558105,42.647064208984375,37.518707275390625,0.0,0.0,-0.0,-0.0,0.43255504965782166,0.8994117379188538,0.03613271936774254,3.2351200580596924,1.2208000421524048,-2.655240058898926,0.0,513539.0
1.0,-26.506486892700195,-30.406044006347656,79.86029815673828,71.90876007080078,0.0,0.0,-0.0,-0.0,0.43255504965782166,0.8994117379188538,0.03613271936774254,3.2351200580596924,1.2208000421524048,-2.655240058898926,0.0,513540.0
1.0,-27.64863395690918,-38.39411926269531,73.04349517822266,66.45728302001953,0.0,0.0,-0.0,-0.0,0.43255504965782166,0.8994117379188538,0.03613271936774254,3.2351200580596924,1.2208000421524048,-2.655240058898926,0.0,513541.0
1.0,-15.088264465332031,-25.72437286376953,24.432209014892578,22.966434478759766,0.0,0.0,-0.0,-0.0,0.43145641684532166,0.8991065621376038,0.03643789514899254,5.310480117797852,1.007159948348999,-1.999060034751892,0.0,513542.0
1.0,5.201952934265137,0.9132587909698486,-38.50676345825195,-33.578033447265625,0.0,0.0,-0.0,-0.0,0.43145641684532166,0.8991065621376038,0.03643789514899254,5.310480117797852,1.007159948348999,-1.999060034751892,0.0,513543.0
1.0,23.70372772216797,27.195173263549805,-79.73931884765625,-70.6092758178711,0.0,0.0,-0.0,-0.0,0.43145641684532166,0.8991065621376038,0.03643789514899254,5.310480117797852,1.007159948348999,-1.999060034751892,0.0,513544.0
1.0,30.472034454345703,38.95754623413086,-76.7817153930664,-68.05540466308594,0.0,0.0,-0.0,-0.0,0.43145641684532166,0.8991065621376038,0.03643789514899254,5.310480117797852,1.007159948348999,-1.999060034751892,0.0,513545.0
1.0,20.410491943359375,30.193387985229492,-33.52581787109375,-29.701818466186523,0.0,0.0,-0.0,-0.0,0.43145641684532166,0.8991065621376038,0.03643789514899254,5.310480117797852,1.007159948348999,-1.999060034751892,0.0,513546.0
1.0,-2.124648094177246,5.732226371765137,25.854082107543945,22.570661544799805,0.0,0.0,-0.0,-0.0,0.43145641684532166,0.8991065621376038,0.03643789514899254,5.310480117797852,1.007159948348999,-1.999060034751892,0.0,513547.0
1.0,-24.261301040649414,-21.848146438598633,71.92387390136719,62.799644470214844,0.0,0.0,-0.0,-0.0,0.43145641684532166,0.8991065621376038,0.03643789514899254,5.310480117797852,1.007159948348999,-1.999060034751892,0.0,513548.0
1.0,-32.37137985229492,-38.2125358581543,81.77157592773438,71.26570129394531,0.0,0.0,-0.0,-0.0,0.43145641684532166,0.8991065621376038,0.03643789514899254,5.310480117797852,1.007159948348999,-1.999060034751892,0.0,513549.0
1.0,-21.159809112548828,-34.57004165649414,49.47138977050781,42.95863342285156,0.0,0.0,-0.0,-0.0,0.43145641684532166,0.8991065621376038,0.03643789514899254,5.310480117797852,1.007159948348999,-1.999060034751892,0.0,513550.0
1.0,3.2232165336608887,-12.71932601928711,-8.62637710571289,-7.870619773864746,0.0,0.0,-0.0,0.0,0.43145641684532166,0.8991065621376038,0.03643789514899254,5.310480117797852,1.007159948348999,-1.999060034751892,0.0,513551.0
1.0,27.08777618408203,15.618245124816895,-61.232418060302734,-53.86177062988281,0.0,0.0,-0.0,0.0,0.42962536215782166,0.8994727730751038,0.03582754358649254,5.417300224304199,0.6409199833869934,-1.892240047454834,0.0,513552.0
1.0,36.78804016113281,34.97893524169922,-79.22879028320312,-69.45891571044922,0.0,0.0,-0.0,0.0,0.42962536215782166,0.8994727730751038,0.03582754358649254,5.417300224304199,0.6409199833869934,-1.892240047454834,0.0,513553.0
1.0,26.447969436645508,35.22886657714844,-53.36885070800781,-46.50912857055664,0.0,0.0,-0.0,0.0,0.42962536215782166,0.8994727730751038,0.03582754358649254,5.417300224304199,0.6409199833869934,-1.892240047454834,0.0,513554.0
1.0,0.6916038990020752,17.234188079833984,-0.13409720361232758,0.4964565336704254,0.0,0.0,-0.0,0.0,0.42962536215782166,0.8994727730751038,0.03582754358649254,5.417300224304199,0.6409199833869934,-1.892240047454834,0.0,513555.0
1.0,-28.036014556884766,-8.83324146270752,49.368621826171875,44.129215240478516,0.0,0.0,-0.0,0.0,0.42962536215782166,0.8994727730751038,0.03582754358649254,5.417300224304199,0.6409199833869934,-1.892240047454834,0.0,513556.0
1.0,-44.216758728027344,-29.18318748474121,68.40438079833984,60.62799835205078,0.0,0.0,-0.0,0.0,0.42962536215782166,0.8994727730751038,0.03582754358649254,5.417300224304199,0.6409199833869934,-1.892240047454834,0.0,513557.0
1.0,-37.58768081665039,-33.14402389526367,49.04564666748047,42.80663299560547,0.0,0.0,-0.0,0.0,0.42962536215782166,0.8994727730751038,0.03582754358649254,5.417300224304199,0.6409199833869934,-1.892240047454834,0.0,513558.0
1.0,-10.724333763122559,-18.916624069213867,4.100038528442383,2.339216470718384,0.0,0.0,-0.0,0.0,0.42962536215782166,0.8994727730751038,0.03582754358649254,5.417300224304199,0.6409199833869934,-1.892240047454834,0.0,513559.0
1.0,22.348037719726562,5.316525936126709,-41.82494354248047,-38.25442886352539,0.0,0.0,-0.0,0.0,0.42962536215782166,0.8994727730751038,0.03582754358649254,5.417300224304199,0.6409199833869934,-1.892240047454834,0.0,513560.0
1.0,44.14881896972656,25.75365447998047,-64.16178131103516,-57.055484771728516,0.0,0.0,-0.0,0.0,0.42962536215782166,0.8994727730751038,0.03582754358649254,5.417300224304199,0.6409199833869934,-1.892240047454834,0.0,513561.0
1.0,43.20641326904297,30.81757354736328,-50.358177185058594,-43.597373962402344,0.0,0.0,-0.0,0.0,0.43090710043907166,0.9031959176063538,0.03625478968024254,2.77731990814209,-0.3815000057220459,-1.7548999786376953,0.0,513562.0
1.0,20.632936477661133,17.93287467956543,-7.43003511428833,-4.847538471221924,0.0,0.0,-0.0,0.0,0.43090710043907166,0.9031959176063538,0.03625478968024254,2.77731990814209,-0.3815000057220459,-1.7548999786376953,0.0,513563.0
1.0,-11.023191452026367,-5.406174182891846,41.596092224121094,38.44394302368164,0.0,0.0,-0.0,0.0,0.43090710043907166,0.9031959176063538,0.03625478968024254,2.77731990814209,-0.3815000057220459,-1.7548999786376953,0.0,513564.0
1.0,-35.36591720581055,-25.93924331665039,68.96676635742188,61.85987091064453,0.0,0.0,-0.0,0.0,0.43090710043907166,0.9031959176063538,0.03625478968024254,2.77731990814209,-0.3815000057220459,-1.7548999786376953,0.0,513565.0
1.0,-40.75267028808594,-31.8732967376709,57.15348434448242,50.49580764770508,0.0,0.0,-0.0,0.0,0.43090710043907166,0.9031959176063538,0.03625478968024254,2.77731990814209,-0.3815000057220459,-1.7548999786376953,0.0,513566.0
1.0,-25.109254837036133,-19.661937713623047,11.542375564575195,9.747374534606934,0.0,0.0,-0.0,0.0,0.43090710043907166,0.9031959176063538,0.03625478968024254,2.77731990814209,-0.3815000057220459,-1.7548999786376953,0.0,513567.0
1.0,3.7103559970855713,4.097010612487793,-41.87748718261719,-37.43739318847656,0.0,0.0,-0.0,0.0,0.43090710043907166,0.9031959176063538,0.03625478968024254,2.77731990814209,-0.3815000057220459,-1.7548999786376953,0.0,513568.0
1.0,30.13618278503418,26.373220443725586,-72.78877258300781,-64.87879943847656,0.0,0.0,-0.0,0.0,0.43090710043907166,0.9031959176063538,0.03625478968024254,2.77731990814209,-0.3815000057220459,-1.7548999786376953,0.0,513569.0
1.0,38.451744079589844,34.78107452392578,-63.96816635131836,-57.55492401123047,0.0,0.0,-0.0,0.0,0.43090710043907166,0.9031959176063538,0.03625478968024254,2.77731990814209,-0.3815000057220459,-1.7548999786376953,0.0,513570.0
1.0,24.00223731994629,24.56435775756836,-20.602291107177734,-19.55810546875,0.0,0.0,-0.0,0.0,0.43090710043907166,0.9031959176063538,0.03625478968024254,2.77731990814209,-0.3815000057220459,-1.7548999786376953,0.0,513571.0
1.0,-4.006585121154785,0.8928796052932739,33.685577392578125,28.74147605895996,0.0,0.0,-0.0,0.0,0.43310436606407166,0.9033790230751038,0.03857411816716194,1.5717799663543701,-0.6866999864578247,-2.10588002204895,0.0,513572.0
1.0,-29.741535186767578,-24.188003540039062,70.31785583496094,62.13859176635742,0.0,0.0,-0.0,0.0,0.43310436606407166,0.9033790230751038,0.03857411816716194,1.5717799663543701,-0.6866999864578247,-2.10588002204895,0.0,513573.0
1.0,-39.00663375854492,-37.43061447143555,70.33244323730469,63.33079528808594,0.0,0.0,-0.0,0.0,0.43310436606407166,0.9033790230751038,0.03857411816716194,1.5717799663543701,-0.6866999864578247,-2.10588002204895,0.0,513574.0
1.0,-26.252605438232422,-31.112640380859375,33.87668228149414,31.611608505249023,0.0,0.0,-0.0,0.0,0.43310436606407166,0.9033790230751038,0.03857411816716194,1.5717799663543701,-0.6866999864578247,-2.10588002204895,0.0,513575.0
1.0,1.8197331428527832,-7.828775405883789,-20.255783081054688,-16.858243942260742,0.0,0.0,-0.0,0.0,0.43310436606407166,0.9033790230751038,0.03857411816716194,1.5717799663543701,-0.6866999864578247,-2.10588002204895,0.0,513576.0
1.0,29.785675048828125,20.23230743408203,-63.862220764160156,-56.80723571777344,0.0,0.0,-0.0,0.0,0.43310436606407166,0.9033790230751038,0.03857411816716194,1.5717799663543701,-0.6866999864578247,-2.10588002204895,0.0,513577.0
1.0,42.08924102783203,37.721553802490234,-73.3297348022461,-66.39337158203125,0.0,0.0,-0.0,0.0,0.43310436606407166,0.9033790230751038,0.03857411816716194,1.5717799663543701,-0.6866999864578247,-2.10588002204895,0.0,513578.0
1.0,32.228816986083984,35.0255126953125,-43.35109329223633,-40.00739288330078,0.0,0.0,-0.0,0.0,0.43310436606407166,0.9033790230751038,0.03857411816716194,1.5717799663543701,-0.6866999864578247,-2.10588002204895,0.0,513579.0
1.0,5.927034854888916,13.696342468261719,9.475460052490234,7.8049540519714355,0.0,0.0,-0.0,0.0,0.43310436606407166,0.9033790230751038,0.03857411816716194,1.5717799663543701,-0.6866999864578247,-2.10588002204895,0.0,513580.0
1.0,-23.749500274658203,-14.835135459899902,56.241661071777344,50.67368698120117,0.0,0.0,-0.0,0.0,0.43310436606407166,0.9033790230751038,0.03857411816716194,1.5717799663543701,-0.6866999864578247,-2.10588002204895,0.0,513581.0
1.0,-42.389427185058594,-35.383968353271484,71.63223266601562,65.14363861083984,0.0,0.0,-0.0,0.0,0.43176159262657166,0.8997169137001038,0.03985585644841194,3.5861001014709473,-0.6104000210762024,-1.815940022468567,0.0,513582.0
1.0,-39.63545608520508,-37.00585174560547,47.997501373291016,43.98346710205078,0.0,0.0,-0.0,0.0,0.43176159262657166,0.8997169137001038,0.03985585644841194,3.5861001014709473,-0.6104000210762024,-1.815940022468567,0.0,513583.0
1.0,-15.66734790802002,-18.795068740844727,-1.2377978563308716,-0.665388822555542,0.0,0.0,-0.0,0.0,0.43176159262657166,0.8997169137001038,0.03985585644841194,3.5861001014709473,-0.6104000210762024,-1.815940022468567,0.0,513584.0
1.0,16.67584228515625,9.625283241271973,-50.0645637512207,-45.22075653076172,0.0,0.0,-0.0,0.0,0.43176159262657166,0.8997169137001038,0.03985585644841194,3.5861001014709473,-0.6104000210762024,-1.815940022468567,0.0,513585.0
1.0,38.83792495727539,32.75675582885742,-72.6568374633789,-66.20844268798828,0.0,0.0,-0.0,0.0,0.43176159262657166,0.8997169137001038,0.03985585644841194,3.5861001014709473,-0.6104000210762024,-1.815940022468567,0.0,513586.0
1.0,38.48976516723633,37.89999771118164,-56.65351867675781,-52.125675201416016,0.0,0.0,-0.0,0.0,0.43176159262657166,0.8997169137001038,0.03985585644841194,3.5861001014709473,-0.6104000210762024,-1.815940022468567,0.0,513587.0
1.0,16.774063110351562,22.771862030029297,-10.604711532592773,-10.37877082824707,0.0,0.0,-0.0,0.0,0.43176159262657166,0.8997169137001038,0.03985585644841194,3.5861001014709473,-0.6104000210762024,-1.815940022468567,0.0,513588.0
1.0,-13.40791130065918,-4.020257949829102,41.64675521850586,37.4113883972168,0.0,0.0,-0.0,0.0,0.43176159262657166,0.8997169137001038,0.03985585644841194,3.5861001014709473,-0.6104000210762024,-1.815940022468567,0.0,513589.0
1.0,-34.75621032714844,-28.274259567260742,73.4711685180664,66.80874633789062,0.0,0.0,-0.0,0.0,0.43176159262657166,0.8997169137001038,0.03985585644841194,3.5861001014709473,-0.6104000210762024,-1.815940022468567,0.0,513590.0
1.0,-35.40956115722656,-37.2202033996582,67.5100326538086,61.775169372558594,0.0,0.0,-0.0,0.0,0.43176159262657166,0.8997169137001038,0.03985585644841194,3.5861001014709473,-0.6104000210762024,-1.815940022468567,0.0,513591.0
1.0,-15.765868186950684,-25.98324966430664,25.21245765686035,23.417509078979492,0.0,0.0,-0.0,0.0,0.42864879965782166,0.8967872262001038,0.03973378613591194,5.966660022735596,-0.1983799934387207,-1.7548999786376953,0.0,513592.0
1.0,12.949017524719238,-0.45207270979881287,-31.512786865234375,-28.252763748168945,0.0,0.0,-0.0,0.0,0.42864879965782166,0.8967872262001038,0.03973378613591194,5.966660022735596,-0.1983799934387207,-1.7548999786376953,0.0,513593.0
1.0,35.32053756713867,25.40147590637207,-70.81294250488281,-63.90492630004883,0.0,0.0,-0.0,0.0,0.42864879965782166,0.8967872262001038,0.03973378613591194,5.966660022735596,-0.1983799934387207,-1.7548999786376953,0.0,513594.0
1.0,38.97802734375,37.1783447265625,-70.50740051269531,-63.337772369384766,0.0,0.0,-0.0,0.0,0.42864879965782166,0.8967872262001038,0.03973378613591194,5.966660022735596,-0.1983799934387207,-1.7548999786376953,0.0,513595.0
1.0,20.70974349975586,28.568593978881836,-32.546627044677734,-28.708072662353516,0.0,0.0,-0.0,0.0,0.42864879965782166,0.8967872262001038,0.03973378613591194,5.966660022735596,-0.1983799934387207,-1.7548999786376953,0.0,513596.0
1.0,-10.779582023620605,4.46607780456543,20.830516815185547,19.532896041870117,0.0,0.0,-0.0,0.0,0.42864879965782166,0.8967872262001038,0.03973378613591194,5.966660022735596,-0.1983799934387207,-1.7548999786376953,0.0,513597.0
1.0,-38.136924743652344,-22.327880859375,61.67190933227539,56.073211669921875,0.0,0.0,-0.0,0.0,0.42864879965782166,0.8967872262001038,0.03973378613591194,5.966660022735596,-0.1983799934387207,-1.7548999786376953,0.0,513598.0
1.0,-44.945953369140625,-37.57756423950195,69.33353424072266,62.3817024230957,0.0,0.0,-0.0,0.0,0.42864879965782166,0.8967872262001038,0.03973378613591194,5.966660022735596,-0.1983799934387207,-1.7548999786376953,0.0,513599.0
1.0,-26.146751403808594,-32.93988037109375,40.107933044433594,35.43003463745117,0.0,0.0,-0.0,0.0,0.42864879965782166,0.8967872262001038,0.03973378613591194,5.966660022735596,-0.1983799934387207,-1.7548999786376953,0.0,513600.0
1.0,8.346311569213867,-10.583908081054688,-10.297971725463867,-10.190760612487793,0.0,0.0,-0.0,0.0,0.42864879965782166,0.8967872262001038,0.03973378613591194,5.966660022735596,-0.1983799934387207,-1.7548999786376953,0.0,513601.0
1.0,38.97909164428711,17.698564529418945,-54.513427734375,-49.71916961669922,0.0,0.0,-0.0,0.0,0.43066295981407166,0.8983741402626038,0.03796377032995224,5.829319953918457,-0.8850799798965454,-2.4110798835754395,0.0,513602.0
1.0,47.946720123291016,36.49136734008789,-68.12017822265625,-61.50022888183594,0.0,0.0,-0.0,0.0,0.43066295981407166,0.8983741402626038,0.03796377032995224,5.829319953918457,-0.8850799798965454,-2.4110798835754395,0.0,513603.0
1.0,30.42194175720215,35.609901428222656,-44.169212341308594,-39.7093620300293,0.0,0.0,0.0,0.0,0.43066295981407166,0.8983741402626038,0.03796377032995224,5.829319953918457,-0.8850799798965454,-2.4110798835754395,0.0,513604.0
1.0,-3.4208853244781494,15.964081764221191,3.0556647777557373,2.5432231426239014,0.0,0.0,0.0,0.0,0.43066295981407166,0.8983741402626038,0.03796377032995224,5.829319953918457,-0.8850799798965454,-2.4110798835754395,0.0,513605.0
1.0,-35.903297424316406,-11.713691711425781,47.563987731933594,42.118919372558594,0.0,0.0,0.0,0.0,0.43066295981407166,0.8983741402626038,0.03796377032995224,5.829319953918457,-0.8850799798965454,-2.4110798835754395,0.0,513606.0
1.0,-50.19161605834961,-32.72782516479492,65.81761932373047,58.50990676879883,0.0,0.0,0.0,0.0,0.43066295981407166,0.8983741402626038,0.03796377032995224,5.829319953918457,-0.8850799798965454,-2.4110798835754395,0.0,513607.0
1.0,-37.917823791503906,-35.89229202270508,48.29589080810547,43.29403305053711,0.0,0.0,0.0,0.0,0.43066295981407166,0.8983741402626038,0.03796377032995224,5.829319953918457,-0.8850799798965454,-2.4110798835754395,0.0,513608.0
1.0,-4.9906744956970215,-19.719438552856445,4.008305072784424,4.022933483123779,0.0,0.0,0.0,0.0,0.43066295981407166,0.8983741402626038,0.03796377032995224,5.829319953918457,-0.8850799798965454,-2.4110798835754395,0.0,513609.0
1.0,30.996490478515625,6.706020355224609,-43.43600845336914,-38.28358459472656,0.0,0.0,0.0,0.0,0.43066295981407166,0.8983741402626038,0.03796377032995224,5.829319953918457,-0.8850799798965454,-2.4110798835754395,0.0,513610.0
1.0,51.203941345214844,28.682249069213867,-66.626708984375,-58.73350524902344,0.0,0.0,0.0,0.0,0.43066295981407166,0.8983741402626038,0.03796377032995224,5.829319953918457,-0.8850799798965454,-2.4110798835754395,0.0,513611.0
1.0,46.037872314453125,34.2236328125,-50.718597412109375,-44.1455192565918,0.0,0.0,0.0,0.0,0.43078503012657166,0.9012427926063538,0.03680410608649254,4.486440181732178,-1.2970999479293823,-1.892240047454834,0.0,513612.0
1.0,18.703088760375977,20.927566528320312,-4.921957492828369,-3.4048988819122314,0.0,0.0,0.0,0.0,0.43078503012657166,0.9012427926063538,0.03680410608649254,4.486440181732178,-1.2970999479293823,-1.892240047454834,0.0,513613.0
1.0,-17.939348220825195,-3.3517887592315674,43.459266662597656,38.779937744140625,0.0,0.0,0.0,0.0,0.43078503012657166,0.9012427926063538,0.03680410608649254,4.486440181732178,-1.2970999479293823,-1.892240047454834,0.0,513614.0
1.0,-46.858192443847656,-25.140972137451172,66.4158935546875,57.939640045166016,0.0,0.0,0.0,0.0,0.43078503012657166,0.9012427926063538,0.03680410608649254,4.486440181732178,-1.2970999479293823,-1.892240047454834,0.0,513615.0
1.0,-53.77100372314453,-32.41343688964844,50.96952819824219,43.38064956665039,0.0,0.0,0.0,0.0,0.43078503012657166,0.9012427926063538,0.03680410608649254,4.486440181732178,-1.2970999479293823,-1.892240047454834,0.0,513616.0
1.0,-34.249244689941406,-21.193933486938477,6.0392022132873535,3.6025643348693848,0.0,0.0,0.0,0.0,0.43078503012657166,0.9012427926063538,0.03680410608649254,4.486440181732178,-1.2970999479293823,-1.892240047454834,0.0,513617.0
1.0,2.6577231884002686,2.289067506790161,-43.294986724853516,-39.071495056152344,0.0,0.0,0.0,0.0,0.43078503012657166,0.9012427926063538,0.03680410608649254,4.486440181732178,-1.2970999479293823,-1.892240047454834,0.0,513618.0
1.0,37.5731315612793,24.868587493896484,-69.76038360595703,-61.02564239501953,0.0,0.0,0.0,0.0,0.43078503012657166,0.9012427926063538,0.03680410608649254,4.486440181732178,-1.2970999479293823,-1.892240047454834,0.0,513619.0
1.0,51.279518127441406,33.572959899902344,-58.8412971496582,-50.319522857666016,0.0,0.0,0.0,0.0,0.43078503012657166,0.9012427926063538,0.03680410608649254,4.486440181732178,-1.2970999479293823,-1.892240047454834,0.0,513620.0
1.0,36.705806732177734,23.302461624145508,-16.814706802368164,-13.054922103881836,0.0,0.0,0.0,0.0,0.43078503012657166,0.9012427926063538,0.03680410608649254,4.486440181732178,-1.2970999479293823,-1.892240047454834,0.0,513621.0
1.0,3.3840456008911133,-0.4083065092563629,34.701507568359375,31.793838500976562,0.0,0.0,0.0,0.0,0.43035778403282166,0.9006324410438538,0.03674307093024254,3.5708398818969727,-0.7477399706840515,-1.9075000286102295,0.0,513622.0
1.0,-28.64765167236328,-24.86350440979004,70.50846099853516,62.480525970458984,0.0,0.0,0.0,0.0,0.43035778403282166,0.9006324410438538,0.03674307093024254,3.5708398818969727,-0.7477399706840515,-1.9075000286102295,0.0,513623.0
1.0,-41.39545440673828,-36.6707649230957,71.87095642089844,62.90388870239258,0.0,0.0,0.0,0.0,0.43035778403282166,0.9006324410438538,0.03674307093024254,3.5708398818969727,-0.7477399706840515,-1.9075000286102295,0.0,513624.0
1.0,-29.785667419433594,-28.712974548339844,35.80195617675781,30.60915756225586,0.0,0.0,0.0,0.0,0.43035778403282166,0.9006324410438538,0.03674307093024254,3.5708398818969727,-0.7477399706840515,-1.9075000286102295,0.0,513625.0
1.0,-2.664903402328491,-4.635252475738525,-20.58118438720703,-19.281936645507812,0.0,0.0,0.0,0.0,0.43035778403282166,0.9006324410438538,0.03674307093024254,3.5708398818969727,-0.7477399706840515,-1.9075000286102295,0.0,513626.0
1.0,24.514095306396484,22.588199615478516,-66.99812316894531,-60.08311080932617,0.0,0.0,0.0,0.0,0.43035778403282166,0.9006324410438538,0.03674307093024254,3.5708398818969727,-0.7477399706840515,-1.9075000286102295,0.0,513627.0
1.0,37.553977966308594,37.863067626953125,-77.02406311035156,-68.51031494140625,0.0,0.0,0.0,0.0,0.43035778403282166,0.9006324410438538,0.03674307093024254,3.5708398818969727,-0.7477399706840515,-1.9075000286102295,0.0,513628.0
1.0,29.846240997314453,32.839637756347656,-45.09396743774414,-39.785762786865234,0.0,0.0,0.0,0.0,0.43035778403282166,0.9006324410438538,0.03674307093024254,3.5708398818969727,-0.7477399706840515,-1.9075000286102295,0.0,513629.0
1.0,5.801547527313232,10.396036148071289,10.63071346282959,9.841066360473633,0.0,0.0,0.0,0.0,0.43035778403282166,0.9006324410438538,0.03674307093024254,3.5708398818969727,-0.7477399706840515,-1.9075000286102295,0.0,513630.0
1.0,-21.509450912475586,-17.68916130065918,60.2155647277832,53.89183044433594,0.0,0.0,0.0,0.0,0.43035778403282166,0.9006324410438538,0.03674307093024254,3.5708398818969727,-0.7477399706840515,-1.9075000286102295,0.0,513631.0
1.0,-37.3170280456543,-36.852298736572266,77.32347106933594,69.11824798583984,0.0,0.0,0.0,0.0,0.43115124106407166,0.9012427926063538,0.03668203577399254,4.028639793395996,0.015259999781847,-1.7701599597930908,0.0,513632.0
1.0,-33.279170989990234,-36.84520721435547,52.41022872924805,46.928890228271484,0.0,0.0,0.0,-0.0,0.43115124106407166,0.9012427926063538,0.03668203577399254,4.028639793395996,0.015259999781847,-1.7701599597930908,0.0,513633.0
1.0,-11.858024597167969,-17.17350196838379,-1.3925963640213013,-1.163377046585083,0.0,0.0,0.0,-0.0,0.43115124106407166,0.9012427926063538,0.03668203577399254,4.028639793395996,0.015259999781847,-1.7701599597930908,0.0,513634.0
1.0,15.26457691192627,12.219463348388672,-55.350196838378906,-49.63705825805664,0.0,0.0,0.0,-0.0,0.43115124106407166,0.9012427926063538,0.03668203577399254,4.028639793395996,0.015259999781847,-1.7701599597930908,0.0,513635.0
1.0,32.994049072265625,35.548095703125,-80.46595001220703,-72.55897521972656,0.0,0.0,0.0,-0.0,0.43115124106407166,0.9012427926063538,0.03668203577399254,4.028639793395996,0.015259999781847,-1.7701599597930908,0.0,513636.0
1.0,31.879661560058594,39.84850311279297,-62.85898208618164,-57.1134147644043,0.0,0.0,0.0,-0.0,0.43115124106407166,0.9012427926063538,0.03668203577399254,4.028639793395996,0.015259999781847,-1.7701599597930908,0.0,513637.0
1.0,14.045551300048828,22.842960357666016,-11.486614227294922,-10.976954460144043,0.0,0.0,0.0,-0.0,0.43115124106407166,0.9012427926063538,0.03668203577399254,4.028639793395996,0.015259999781847,-1.7701599597930908,0.0,513638.0
1.0,-9.818260192871094,-6.163693904876709,47.032745361328125,41.87664031982422,0.0,0.0,0.0,-0.0,0.43115124106407166,0.9012427926063538,0.03668203577399254,4.028639793395996,0.015259999781847,-1.7701599597930908,0.0,513639.0
1.0,-27.03156852722168,-31.835641860961914,81.9780044555664,73.81487274169922,0.0,0.0,0.0,-0.0,0.43115124106407166,0.9012427926063538,0.03668203577399254,4.028639793395996,0.015259999781847,-1.7701599597930908,0.0,513640.0
1.0,-28.62527084350586,-40.71507263183594,73.90564727783203,67.32125091552734,0.0,0.0,0.0,-0.0,0.43115124106407166,0.9012427926063538,0.03668203577399254,4.028639793395996,0.015259999781847,-1.7701599597930908,0.0,513641.0
1.0,-13.751852989196777,-28.162635803222656,26.08453941345215,25.020532608032227,0.0,0.0,0.0,-0.0,0.43188366293907166,0.9009376168251038,0.03521719574928284,3.5708398818969727,-0.1373399943113327,-2.10588002204895,0.0,513642.0
1.0,9.69064998626709,-0.864345908164978,-35.983421325683594,-30.35923957824707,0.0,0.0,0.0,-0.0,0.43188366293907166,0.9009376168251038,0.03521719574928284,3.5708398818969727,-0.1373399943113327,-2.10588002204895,0.0,513643.0
1.0,28.498939514160156,26.4856014251709,-78.04487609863281,-68.13394165039062,0.0,0.0,0.0,-0.0,0.43188366293907166,0.9009376168251038,0.03521719574928284,3.5708398818969727,-0.1373399943113327,-2.10588002204895,0.0,513644.0
1.0,30.710920333862305,39.11122512817383,-77.11844635009766,-67.93263244628906,0.0,0.0,0.0,-0.0,0.43188366293907166,0.9009376168251038,0.03521719574928284,3.5708398818969727,-0.1373399943113327,-2.10588002204895,0.0,513645.0
1.0,13.689373016357422,30.57904815673828,-35.37533187866211,-31.906845092773438,0.0,0.0,0.0,-0.0,0.43188366293907166,0.9009376168251038,0.03521719574928284,3.5708398818969727,-0.1373399943113327,-2.10588002204895,0.0,513646.0
1.0,-12.861952781677246,6.006059169769287,23.273754119873047,18.804424285888672,0.0,0.0,0.0,-0.0,0.43188366293907166,0.9009376168251038,0.03521719574928284,3.5708398818969727,-0.1373399943113327,-2.10588002204895,0.0,513647.0
1.0,-33.19451141357422,-21.15842628479004,67.80091857910156,57.30865478515625,0.0,0.0,0.0,-0.0,0.43188366293907166,0.9009376168251038,0.03521719574928284,3.5708398818969727,-0.1373399943113327,-2.10588002204895,0.0,513648.0
1.0,-35.48265075683594,-36.197654724121094,75.1396713256836,63.85859680175781,0.0,0.0,0.0,-0.0,0.43188366293907166,0.9009376168251038,0.03521719574928284,3.5708398818969727,-0.1373399943113327,-2.10588002204895,0.0,513649.0
1.0,-18.11852264404297,-31.093505859375,41.851295471191406,35.36362838745117,0.0,0.0,0.0,-0.0,0.43188366293907166,0.9009376168251038,0.03521719574928284,3.5708398818969727,-0.1373399943113327,-2.10588002204895,0.0,513650.0
1.0,9.74193286895752,-8.894415855407715,-13.577788352966309,-12.460349082946777,0.0,0.0,0.0,-0.0,0.43188366293907166,0.9009376168251038,0.03521719574928284,3.5708398818969727,-0.1373399943113327,-2.10588002204895,0.0,513651.0
1.0,33.101810455322266,18.11994743347168,-60.607540130615234,-52.961971282958984,0.0,0.0,0.0,-0.0,0.43200573325157166,0.8997779488563538,0.033935461193323135,5.005280017852783,0.488319993019104,-2.334779977798462,0.0,513652.0
1.0,39.58511734008789,35.01460647583008,-73.36482238769531,-63.27042007446289,0.0,0.0,0.0,-0.0,0.43200573325157166,0.8997779488563538,0.033935461193323135,5.005280017852783,0.488319993019104,-2.334779977798462,0.0,513653.0
1.0,26.02252769470215,32.666446685791016,-45.624839782714844,-38.0428581237793,0.0,0.0,0.0,-0.0,0.43200573325157166,0.8997779488563538,0.033935461193323135,5.005280017852783,0.488319993019104,-2.334779977798462,0.0,513654.0
1.0,-1.1665948629379272,12.890734672546387,6.155201435089111,7.702402114868164,0.0,0.0,0.0,-0.0,0.43200573325157166,0.8997779488563538,0.033935461193323135,5.005280017852783,0.488319993019104,-2.334779977798462,0.0,513655.0
1.0,-29.182819366455078,-13.355387687683105,53.50540542602539,48.46432113647461,0.0,0.0,0.0,-0.0,0.43200573325157166,0.8997779488563538,0.033935461193323135,5.005280017852783,0.488319993019104,-2.334779977798462,0.0,513656.0
1.0,-43.036495208740234,-32.08612060546875,71.46459197998047,62.739356994628906,0.0,0.0,0.0,-0.0,0.43200573325157166,0.8997779488563538,0.033935461193323135,5.005280017852783,0.488319993019104,-2.334779977798462,0.0,513657.0
1.0,-33.37645721435547,-33.42037582397461,51.2771110534668,44.012725830078125,0.0,0.0,0.0,-0.0,0.43200573325157166,0.8997779488563538,0.033935461193323135,5.005280017852783,0.488319993019104,-2.334779977798462,0.0,513658.0
1.0,-4.348508358001709,-16.86237335205078,4.168080806732178,2.7095625400543213,0.0,0.0,0.0,-0.0,0.43200573325157166,0.8997779488563538,0.033935461193323135,5.005280017852783,0.488319993019104,-2.334779977798462,0.0,513659.0
1.0,27.136425018310547,8.416824340820312,-45.57117462158203,-40.49602127075195,0.0,0.0,0.0,-0.0,0.43200573325157166,0.8997779488563538,0.033935461193323135,5.005280017852783,0.488319993019104,-2.334779977798462,0.0,513660.0
1.0,42.00006866455078,28.416105270385742,-72.26114654541016,-63.8995475769043,0.0,0.0,0.0,-0.0,0.43200573325157166,0.8997779488563538,0.033935461193323135,5.005280017852783,0.488319993019104,-2.334779977798462,0.0,513661.0
1.0,32.41532897949219,32.2459831237793,-61.22117233276367,-54.58626937866211,0.0,0.0,0.0,-0.0,0.43005260825157166,0.8995948433876038,0.034118566662073135,4.730599880218506,0.4272800087928772,-2.3500399589538574,0.0,513662.0
1.0,6.044643878936768,18.296737670898438,-17.170961380004883,-16.016801834106445,0.0,0.0,0.0,-0.0,0.43005260825157166,0.8995948433876038,0.034118566662073135,4.730599880218506,0.4272800087928772,-2.3500399589538574,0.0,513663.0
1.0,-21.7947998046875,-5.671396732330322,37.439674377441406,32.528404235839844,0.0,0.0,0.0,-0.0,0.43005260825157166,0.8995948433876038,0.034118566662073135,4.730599880218506,0.4272800087928772,-2.3500399589538574,0.0,513664.0
1.0,-37.72834396362305,-26.719219207763672,72.83091735839844,64.50035095214844,0.0,0.0,0.0,-0.0,0.43005260825157166,0.8995948433876038,0.034118566662073135,4.730599880218506,0.4272800087928772,-2.3500399589538574,0.0,513665.0
1.0,-35.05417251586914,-33.098487854003906,68.13490295410156,60.87095260620117,0.0,0.0,0.0,-0.0,0.43005260825157166,0.8995948433876038,0.034118566662073135,4.730599880218506,0.4272800087928772,-2.3500399589538574,0.0,513666.0
1.0,-14.782658576965332,-20.907899856567383,25.46552848815918,23.325122833251953,0.0,0.0,0.0,-0.0,0.43005260825157166,0.8995948433876038,0.034118566662073135,4.730599880218506,0.4272800087928772,-2.3500399589538574,0.0,513667.0
1.0,14.334773063659668,3.444228172302246,-31.035621643066406,-26.65078353881836,0.0,0.0,0.0,-0.0,0.43005260825157166,0.8995948433876038,0.034118566662073135,4.730599880218506,0.4272800087928772,-2.3500399589538574,0.0,513668.0
1.0,37.67719650268555,26.53221893310547,-69.61431121826172,-60.88636779785156,0.0,0.0,0.0,-0.0,0.43005260825157166,0.8995948433876038,0.034118566662073135,4.730599880218506,0.4272800087928772,-2.3500399589538574,0.0,513669.0
1.0,42.124446868896484,35.31093978881836,-68.80633544921875,-60.454708099365234,0.0,0.0,0.0,-0.0,0.43005260825157166,0.8995948433876038,0.034118566662073135,4.730599880218506,0.4272800087928772,-2.3500399589538574,0.0,513670.0
1.0,24.899654388427734,24.76519203186035,-29.65235137939453,-26.30146598815918,0.0,0.0,0.0,-0.0,0.43005260825157166,0.8995948433876038,0.034118566662073135,4.730599880218506,0.4272800087928772,-2.3500399589538574,0.0,513671.0
1.0,-4.961540222167969,0.3978091776371002,26.095863342285156,22.525232315063477,0.0,0.0,0.0,-0.0,0.42950329184532166,0.9013038277626038,0.034057531505823135,3.219860076904297,0.3815000057220459,-2.2279601097106934,0.0,513672.0
1.0,-32.11509323120117,-25.066789627075195,68.52747344970703,59.88312530517578,0.0,0.0,0.0,-0.0,0.42950329184532166,0.9013038277626038,0.034057531505823135,3.219860076904297,0.3815000057220459,-2.2279601097106934,0.0,513673.0
1.0,-42.12925720214844,-37.90017318725586,74.59186553955078,65.56175231933594,0.0,0.0,0.0,-0.0,0.42950329184532166,0.9013038277626038,0.034057531505823135,3.219860076904297,0.3815000057220459,-2.2279601097106934,0.0,513674.0
1.0,-29.036420822143555,-30.629615783691406,40.46834182739258,35.97804641723633,0.0,0.0,0.0,-0.0,0.42950329184532166,0.9013038277626038,0.034057531505823135,3.219860076904297,0.3815000057220459,-2.2279601097106934,0.0,513675.0
1.0,0.4622248411178589,-6.659918308258057,-15.612025260925293,-13.194589614868164,0.0,0.0,0.0,-0.0,0.42950329184532166,0.9013038277626038,0.034057531505823135,3.219860076904297,0.3815000057220459,-2.2279601097106934,0.0,513676.0
1.0,29.473543167114258,21.35188865661621,-63.5074348449707,-55.54219055175781,0.0,0.0,0.0,-0.0,0.42950329184532166,0.9013038277626038,0.034057531505823135,3.219860076904297,0.3815000057220459,-2.2279601097106934,0.0,513677.0
1.0,40.0417366027832,38.452152252197266,-78.41010284423828,-69.09410858154297,0.0,0.0,0.0,-0.0,0.42950329184532166,0.9013038277626038,0.034057531505823135,3.219860076904297,0.3815000057220459,-2.2279601097106934,0.0,513678.0
1.0,25.939672470092773,35.64512252807617,-53.760292053222656,-47.966426849365234,0.0,0.0,0.0,-0.0,0.42950329184532166,0.9013038277626038,0.034057531505823135,3.219860076904297,0.3815000057220459,-2.2279601097106934,0.0,513679.0
1.0,-3.2891454696655273,14.51310920715332,-2.697389602661133,-3.499295711517334,0.0,0.0,0.0,-0.0,0.42950329184532166,0.9013038277626038,0.034057531505823135,3.219860076904297,0.3815000057220459,-2.2279601097106934,0.0,513680.0
1.0,-30.672876358032227,-14.082863807678223,49.1265754699707,42.1762809753418,0.0,0.0,0.0,-0.0,0.42950329184532166,0.9013038277626038,0.034057531505823135,3.219860076904297,0.3815000057220459,-2.2279601097106934,0.0,513681.0
1.0,-41.18817901611328,-35.40570831298828,74.93143463134766,65.59854888916016,0.0,0.0,0.0,-0.0,0.43078503012657166,0.9026466012001038,0.03576650843024254,2.8231000900268555,1.022420048713684,-1.9380199909210205,0.0,513682.0
1.0,-28.627294540405273,-38.16298294067383,60.56867980957031,53.80754852294922,0.0,0.0,0.0,-0.0,0.43078503012657166,0.9026466012001038,0.03576650843024254,2.8231000900268555,1.022420048713684,-1.9380199909210205,0.0,513683.0
1.0,0.5992807745933533,-20.66120147705078,13.435290336608887,12.7951078414917,0.0,0.0,0.0,-0.0,0.43078503012657166,0.9026466012001038,0.03576650843024254,2.8231000900268555,1.022420048713684,-1.9380199909210205,0.0,513684.0
1.0,30.50119972229004,7.927462577819824,-40.84004592895508,-35.056339263916016,0.0,0.0,0.0,-0.0,0.43078503012657166,0.9026466012001038,0.03576650843024254,2.8231000900268555,1.022420048713684,-1.9380199909210205,0.0,513685.0
1.0,43.89838409423828,32.02427673339844,-71.82908630371094,-62.97105026245117,0.0,0.0,-0.0,-0.0,0.43078503012657166,0.9026466012001038,0.03576650843024254,2.8231000900268555,1.022420048713684,-1.9380199909210205,0.0,513686.0
1.0,32.753395080566406,38.337772369384766,-61.76951217651367,-54.971717834472656,0.0,0.0,-0.0,-0.0,0.43078503012657166,0.9026466012001038,0.03576650843024254,2.8231000900268555,1.022420048713684,-1.9380199909210205,0.0,513687.0
1.0,4.147617816925049,23.6031494140625,-16.539270401000977,-15.489513397216797,0.0,0.0,-0.0,-0.0,0.43078503012657166,0.9026466012001038,0.03576650843024254,2.8231000900268555,1.022420048713684,-1.9380199909210205,0.0,513688.0
1.0,-25.185087203979492,-4.084332466125488,38.404685974121094,33.4823112487793,0.0,0.0,-0.0,-0.0,0.43078503012657166,0.9026466012001038,0.03576650843024254,2.8231000900268555,1.022420048713684,-1.9380199909210205,0.0,513689.0
1.0,-40.31868362426758,-29.70990562438965,72.10507202148438,64.20618438720703,0.0,0.0,-0.0,-0.0,0.43078503012657166,0.9026466012001038,0.03576650843024254,2.8231000900268555,1.022420048713684,-1.9380199909210205,0.0,513690.0
1.0,-34.951927185058594,-39.17449951171875,65.06434631347656,58.5399284362793,0.0,0.0,-0.0,-0.0,0.43078503012657166,0.9026466012001038,0.03576650843024254,2.8231000900268555,1.022420048713684,-1.9380199909210205,0.0,513691.0
1.0,-12.358436584472656,-27.301713943481445,21.227272033691406,19.521930694580078,0.0,0.0,-0.0,-0.0,0.43078503012657166,0.9022193551063538,0.03680410608649254,4.196499824523926,0.5035799741744995,-1.815940022468567,0.0,513692.0
1.0,16.787092208862305,-0.6313294768333435,-34.525447845458984,-30.490447998046875,0.0,0.0,-0.0,-0.0,0.43078503012657166,0.9022193551063538,0.03680410608649254,4.196499824523926,0.5035799741744995,-1.815940022468567,0.0,513693.0
1.0,38.4205322265625,26.378652572631836,-70.65862274169922,-63.135684967041016,0.0,0.0,-0.0,-0.0,0.43078503012657166,0.9022193551063538,0.03680410608649254,4.196499824523926,0.5035799741744995,-1.815940022468567,0.0,513694.0
1.0,40.67527389526367,39.19630432128906,-66.97264099121094,-60.29230499267578,0.0,0.0,-0.0,-0.0,0.43078503012657166,0.9022193551063538,0.03680410608649254,4.196499824523926,0.5035799741744995,-1.815940022468567,0.0,513695.0
1.0,20.8311767578125,31.214815139770508,-26.829551696777344,-24.60329246520996,0.0,0.0,-0.0,-0.0,0.43078503012657166,0.9022193551063538,0.03680410608649254,4.196499824523926,0.5035799741744995,-1.815940022468567,0.0,513696.0
1.0,-11.049253463745117,6.963972091674805,26.676958084106445,23.5349178314209,0.0,0.0,-0.0,-0.0,0.43078503012657166,0.9022193551063538,0.03680410608649254,4.196499824523926,0.5035799741744995,-1.815940022468567,0.0,513697.0
1.0,-37.206298828125,-20.71247673034668,65.12052917480469,58.27050018310547,0.0,0.0,-0.0,-0.0,0.43078503012657166,0.9022193551063538,0.03680410608649254,4.196499824523926,0.5035799741744995,-1.815940022468567,0.0,513698.0
1.0,-43.39398956298828,-37.118648529052734,68.2801513671875,61.06083679199219,0.0,0.0,-0.0,-0.0,0.43078503012657166,0.9022193551063538,0.03680410608649254,4.196499824523926,0.5035799741744995,-1.815940022468567,0.0,513699.0
1.0,-27.276687622070312,-33.34480667114258,33.8913459777832,30.05646514892578,0.0,0.0,-0.0,-0.0,0.43078503012657166,0.9022193551063538,0.03680410608649254,4.196499824523926,0.5035799741744995,-1.815940022468567,0.0,513700.0
1.0,2.8808138370513916,-11.305139541625977,-19.15245819091797,-17.280750274658203,0.0,0.0,-0.0,-0.0,0.43078503012657166,0.9022193551063538,0.03680410608649254,4.196499824523926,0.5035799741744995,-1.815940022468567,0.0,513701.0
1.0,34.14365005493164,17.049867630004883,-59.14678955078125,-52.178428649902344,0.0,0.0,-0.0,-0.0,0.42883190512657166,0.9020362496376038,0.03832998126745224,5.356259822845459,0.2746799886226654,-1.510740041732788,0.0,513702.0
1.0,49.735294342041016,35.94267654418945,-63.90195083618164,-55.36381912231445,0.0,0.0,-0.0,-0.0,0.42883190512657166,0.9020362496376038,0.03832998126745224,5.356259822845459,0.2746799886226654,-1.510740041732788,0.0,513703.0
1.0,35.37208557128906,34.94498825073242,-37.14920425415039,-31.620201110839844,0.0,0.0,-0.0,-0.0,0.42883190512657166,0.9020362496376038,0.03832998126745224,5.356259822845459,0.2746799886226654,-1.510740041732788,0.0,513704.0
1.0,-3.849449634552002,15.3049955368042,2.6629533767700195,2.129108190536499,0.0,0.0,-0.0,-0.0,0.42883190512657166,0.9020362496376038,0.03832998126745224,5.356259822845459,0.2746799886226654,-1.510740041732788,0.0,513705.0
1.0,-42.82403564453125,-11.849603652954102,38.31574630737305,31.896808624267578,0.0,0.0,-0.0,-0.0,0.42883190512657166,0.9020362496376038,0.03832998126745224,5.356259822845459,0.2746799886226654,-1.510740041732788,0.0,513706.0
1.0,-56.79624938964844,-32.31377410888672,55.54707336425781,46.71516799926758,0.0,0.0,-0.0,-0.0,0.42883190512657166,0.9020362496376038,0.03832998126745224,5.356259822845459,0.2746799886226654,-1.510740041732788,0.0,513707.0
1.0,-37.50080490112305,-35.69755554199219,46.143043518066406,39.80524444580078,0.0,0.0,-0.0,-0.0,0.42883190512657166,0.9020362496376038,0.03832998126745224,5.356259822845459,0.2746799886226654,-1.510740041732788,0.0,513708.0
1.0,3.970914125442505,-20.389713287353516,13.970810890197754,13.549168586730957,0.0,0.0,-0.0,-0.0,0.42883190512657166,0.9020362496376038,0.03832998126745224,5.356259822845459,0.2746799886226654,-1.510740041732788,0.0,513709.0
1.0,43.906410217285156,5.4802093505859375,-25.578550338745117,-20.107852935791016,0.0,0.0,-0.0,-0.0,0.42883190512657166,0.9020362496376038,0.03832998126745224,5.356259822845459,0.2746799886226654,-1.510740041732788,0.0,513710.0
1.0,59.30500030517578,27.816925048828125,-52.0634651184082,-43.92635726928711,0.0,0.0,-0.0,-0.0,0.42883190512657166,0.9020362496376038,0.03832998126745224,5.356259822845459,0.2746799886226654,-1.510740041732788,0.0,513711.0
1.0,42.25373458862305,34.30963134765625,-50.253536224365234,-43.87094497680664,0.0,0.0,-0.0,-0.0,0.42846569418907166,0.9029517769813538,0.03839101642370224,4.089680194854736,0.1373399943113327,-1.3428800106048584,0.0,513712.0
1.0,4.383118629455566,21.715288162231445,-19.36796760559082,-18.094512939453125,0.0,0.0,-0.0,0.0,0.42846569418907166,0.9029517769813538,0.03839101642370224,4.089680194854736,0.1373399943113327,-1.3428800106048584,0.0,513713.0
1.0,-32.846275329589844,-2.819246768951416,25.177324295043945,20.544599533081055,0.0,0.0,-0.0,0.0,0.42846569418907166,0.9029517769813538,0.03839101642370224,4.089680194854736,0.1373399943113327,-1.3428800106048584,0.0,513714.0
1.0,-51.3823356628418,-25.8774356842041,58.00881576538086,49.725852966308594,0.0,0.0,-0.0,0.0,0.42846569418907166,0.9029517769813538,0.03839101642370224,4.089680194854736,0.1373399943113327,-1.3428800106048584,0.0,513715.0
1.0,-44.16527557373047,-34.71013259887695,57.77077102661133,50.196197509765625,0.0,0.0,-0.0,0.0,0.42846569418907166,0.9029517769813538,0.03839101642370224,4.089680194854736,0.1373399943113327,-1.3428800106048584,0.0,513716.0
1.0,-16.097078323364258,-24.30185317993164,22.46815299987793,19.717689514160156,0.0,0.0,-0.0,0.0,0.42846569418907166,0.9029517769813538,0.03839101642370224,4.089680194854736,0.1373399943113327,-1.3428800106048584,0.0,513717.0
1.0,19.12388801574707,-0.17071975767612457,-28.0767765045166,-24.45616340637207,0.0,0.0,-0.0,0.0,0.42846569418907166,0.9029517769813538,0.03839101642370224,4.089680194854736,0.1373399943113327,-1.3428800106048584,0.0,513718.0
1.0,44.2581672668457,24.55589485168457,-64.34025573730469,-56.19268035888672,0.0,0.0,-0.0,0.0,0.42846569418907166,0.9029517769813538,0.03839101642370224,4.089680194854736,0.1373399943113327,-1.3428800106048584,0.0,513719.0
1.0,46.57529067993164,36.219058990478516,-64.52088165283203,-56.15665817260742,0.0,0.0,-0.0,0.0,0.42846569418907166,0.9029517769813538,0.03839101642370224,4.089680194854736,0.1373399943113327,-1.3428800106048584,0.0,513720.0
1.0,24.99329948425293,28.437889099121094,-27.660207748413086,-23.742637634277344,0.0,0.0,-0.0,0.0,0.42846569418907166,0.9029517769813538,0.03839101642370224,4.089680194854736,0.1373399943113327,-1.3428800106048584,0.0,513721.0
1.0,-9.631617546081543,5.364338397979736,25.95868492126465,23.10112762451172,0.0,0.0,-0.0,0.0,0.42913708090782166,0.9017310738563538,0.03771962970495224,3.0977799892425537,-0.030519999563694,-1.4802199602127075,0.0,513722.0
1.0,-39.540740966796875,-20.881603240966797,66.35372161865234,58.53041458129883,0.0,0.0,-0.0,0.0,0.42913708090782166,0.9017310738563538,0.03771962970495224,3.0977799892425537,-0.030519999563694,-1.4802199602127075,0.0,513723.0
1.0,-48.3365364074707,-36.18980407714844,70.58891296386719,62.70644760131836,0.0,0.0,-0.0,0.0,0.42913708090782166,0.9017310738563538,0.03771962970495224,3.0977799892425537,-0.030519999563694,-1.4802199602127075,0.0,513724.0
1.0,-31.111652374267578,-31.926410675048828,35.92324447631836,32.685386657714844,0.0,0.0,-0.0,0.0,0.42913708090782166,0.9017310738563538,0.03771962970495224,3.0977799892425537,-0.030519999563694,-1.4802199602127075,0.0,513725.0
1.0,2.0379245281219482,-10.10140323638916,-19.286598205566406,-16.152727127075195,0.0,0.0,-0.0,0.0,0.42913708090782166,0.9017310738563538,0.03771962970495224,3.0977799892425537,-0.030519999563694,-1.4802199602127075,0.0,513726.0
1.0,32.88581848144531,17.392377853393555,-65.43046569824219,-57.9017448425293,0.0,0.0,-0.0,0.0,0.42913708090782166,0.9017310738563538,0.03771962970495224,3.0977799892425537,-0.030519999563694,-1.4802199602127075,0.0,513727.0
1.0,45.45695877075195,35.245357513427734,-76.85777282714844,-69.34210968017578,0.0,0.0,-0.0,0.0,0.42913708090782166,0.9017310738563538,0.03771962970495224,3.0977799892425537,-0.030519999563694,-1.4802199602127075,0.0,513728.0
1.0,34.165977478027344,33.678768157958984,-47.070796966552734,-43.778411865234375,0.0,0.0,-0.0,0.0,0.42913708090782166,0.9017310738563538,0.03771962970495224,3.0977799892425537,-0.030519999563694,-1.4802199602127075,0.0,513729.0
1.0,5.835747241973877,13.906408309936523,7.517323970794678,5.013486862182617,0.0,0.0,-0.0,0.0,0.42913708090782166,0.9017310738563538,0.03771962970495224,3.0977799892425537,-0.030519999563694,-1.4802199602127075,0.0,513730.0
1.0,-24.744253158569336,-13.256080627441406,58.190650939941406,51.569393157958984,0.0,0.0,-0.0,0.0,0.42913708090782166,0.9017310738563538,0.03771962970495224,3.0977799892425537,-0.030519999563694,-1.4802199602127075,0.0,513731.0
1.0,-41.419490814208984,-33.232540130615234,78.83319091796875,71.65579986572266,0.0,0.0,-0.0,0.0,0.42895397543907166,0.9010596871376038,0.03710927814245224,3.4182400703430176,-0.4578000009059906,-1.9838000535964966,0.0,513732.0
1.0,-34.882259368896484,-35.22196960449219,58.49715042114258,54.21739959716797,0.0,0.0,-0.0,0.0,0.42895397543907166,0.9010596871376038,0.03710927814245224,3.4182400703430176,-0.4578000009059906,-1.9838000535964966,0.0,513733.0
1.0,-9.359004020690918,-18.1007137298584,7.147264003753662,7.726625919342041,0.0,0.0,-0.0,0.0,0.42895397543907166,0.9010596871376038,0.03710927814245224,3.4182400703430176,-0.4578000009059906,-1.9838000535964966,0.0,513734.0
1.0,19.464895248413086,8.957633972167969,-48.94208908081055,-43.76917266845703,0.0,0.0,-0.0,0.0,0.42895397543907166,0.9010596871376038,0.03710927814245224,3.4182400703430176,-0.4578000009059906,-1.9838000535964966,0.0,513735.0
1.0,34.74913024902344,31.180622100830078,-79.79072570800781,-72.56258392333984,0.0,0.0,-0.0,0.0,0.42895397543907166,0.9010596871376038,0.03710927814245224,3.4182400703430176,-0.4578000009059906,-1.9838000535964966,0.0,513736.0
1.0,29.201204299926758,36.33314895629883,-68.50215148925781,-62.885311126708984,0.0,0.0,-0.0,0.0,0.42895397543907166,0.9010596871376038,0.03710927814245224,3.4182400703430176,-0.4578000009059906,-1.9838000535964966,0.0,513737.0
1.0,7.880393981933594,21.815895080566406,-21.58880615234375,-20.511293411254883,0.0,0.0,-0.0,0.0,0.42895397543907166,0.9010596871376038,0.03710927814245224,3.4182400703430176,-0.4578000009059906,-1.9838000535964966,0.0,513738.0
1.0,-16.697574615478516,-4.35500955581665,36.46471405029297,32.12101745605469,0.0,0.0,-0.0,0.0,0.42895397543907166,0.9010596871376038,0.03710927814245224,3.4182400703430176,-0.4578000009059906,-1.9838000535964966,0.0,513739.0
1.0,-31.102115631103516,-28.13422203063965,76.25306701660156,68.1480712890625,0.0,0.0,-0.0,0.0,0.42895397543907166,0.9010596871376038,0.03710927814245224,3.4182400703430176,-0.4578000009059906,-1.9838000535964966,0.0,513740.0
1.0,-27.6314754486084,-36.67441177368164,76.48374938964844,68.56819152832031,0.0,0.0,-0.0,0.0,0.42895397543907166,0.9010596871376038,0.03710927814245224,3.4182400703430176,-0.4578000009059906,-1.9838000535964966,0.0,513741.0
1.0,-8.277172088623047,-25.296310424804688,35.92066955566406,32.66147232055664,0.0,0.0,-0.0,0.0,0.42803844809532166,0.8986793160438538,0.03668203577399254,4.3948798179626465,-1.327620029449463,-2.1821799278259277,0.0,513742.0
1.0,17.16928482055664,-0.17104263603687286,-23.6004638671875,-20.02889633178711,0.0,0.0,-0.0,0.0,0.42803844809532166,0.8986793160438538,0.03668203577399254,4.3948798179626465,-1.327620029449463,-2.1821799278259277,0.0,513743.0
1.0,35.70258712768555,24.801532745361328,-68.31859588623047,-59.65271759033203,0.0,0.0,-0.0,0.0,0.42803844809532166,0.8986793160438538,0.03668203577399254,4.3948798179626465,-1.327620029449463,-2.1821799278259277,0.0,513744.0
1.0,36.57230758666992,35.697227478027344,-73.3011245727539,-64.28094482421875,0.0,0.0,-0.0,0.0,0.42803844809532166,0.8986793160438538,0.03668203577399254,4.3948798179626465,-1.327620029449463,-2.1821799278259277,0.0,513745.0
1.0,17.489912033081055,26.864215850830078,-38.27313232421875,-33.839359283447266,0.0,0.0,-0.0,0.0,0.42803844809532166,0.8986793160438538,0.03668203577399254,4.3948798179626465,-1.327620029449463,-2.1821799278259277,0.0,513746.0
1.0,-12.820002555847168,3.650085210800171,15.221365928649902,12.861434936523438,0.0,0.0,-0.0,0.0,0.42803844809532166,0.8986793160438538,0.03668203577399254,4.3948798179626465,-1.327620029449463,-2.1821799278259277,0.0,513747.0
1.0,-38.542625427246094,-21.294490814208984,58.195316314697266,50.7472038269043,0.0,0.0,-0.0,0.0,0.42803844809532166,0.8986793160438538,0.03668203577399254,4.3948798179626465,-1.327620029449463,-2.1821799278259277,0.0,513748.0
1.0,-45.061317443847656,-34.539615631103516,68.22236633300781,60.082542419433594,0.0,0.0,-0.0,0.0,0.42803844809532166,0.8986793160438538,0.03668203577399254,4.3948798179626465,-1.327620029449463,-2.1821799278259277,0.0,513749.0
1.0,-27.81702423095703,-28.841291427612305,40.356689453125,36.070030212402344,0.0,0.0,-0.0,0.0,0.42803844809532166,0.8986793160438538,0.03668203577399254,4.3948798179626465,-1.327620029449463,-2.1821799278259277,0.0,513750.0
1.0,3.9607629776000977,-7.175937652587891,-10.517837524414062,-8.720075607299805,0.0,0.0,-0.0,0.0,0.42803844809532166,0.8986793160438538,0.03668203577399254,4.3948798179626465,-1.327620029449463,-2.1821799278259277,0.0,513751.0
1.0,32.3880729675293,18.77876091003418,-57.17483139038086,-50.563804626464844,0.0,0.0,-0.0,0.0,0.42755016684532166,0.8986793160438538,0.03704824671149254,5.310480117797852,-0.4578000009059906,-2.80784010887146,0.0,513752.0
1.0,42.03670120239258,34.80717468261719,-73.14700317382812,-65.5800552368164,0.0,0.0,-0.0,0.0,0.42755016684532166,0.8986793160438538,0.03704824671149254,5.310480117797852,-0.4578000009059906,-2.80784010887146,0.0,513753.0
1.0,29.271961212158203,32.25608444213867,-48.20234298706055,-43.867069244384766,0.0,0.0,-0.0,0.0,0.42755016684532166,0.8986793160438538,0.03704824671149254,5.310480117797852,-0.4578000009059906,-2.80784010887146,0.0,513754.0
1.0,2.4271647930145264,12.825547218322754,4.118365287780762,2.7731735706329346,0.0,0.0,-0.0,0.0,0.42755016684532166,0.8986793160438538,0.03704824671149254,5.310480117797852,-0.4578000009059906,-2.80784010887146,0.0,513755.0
1.0,-24.337926864624023,-13.194305419921875,54.82712936401367,48.35691452026367,0.0,0.0,-0.0,0.0,0.42755016684532166,0.8986793160438538,0.03704824671149254,5.310480117797852,-0.4578000009059906,-2.80784010887146,0.0,513756.0
1.0,-36.94119644165039,-32.45752716064453,76.40213775634766,68.2473373413086,0.0,0.0,-0.0,0.0,0.42755016684532166,0.8986793160438538,0.03704824671149254,5.310480117797852,-0.4578000009059906,-2.80784010887146,0.0,513757.0
1.0,-28.76828956604004,-34.951148986816406,57.20229721069336,51.70573425292969,0.0,0.0,-0.0,0.0,0.42755016684532166,0.8986793160438538,0.03704824671149254,5.310480117797852,-0.4578000009059906,-2.80784010887146,0.0,513758.0
1.0,-5.649223327636719,-19.138103485107422,7.245285511016846,7.099867343902588,0.0,0.0,-0.0,0.0,0.42755016684532166,0.8986793160438538,0.03704824671149254,5.310480117797852,-0.4578000009059906,-2.80784010887146,0.0,513759.0
1.0,19.2264404296875,6.8400654792785645,-46.66297149658203,-41.675716400146484,0.0,0.0,-0.0,0.0,0.42755016684532166,0.8986793160438538,0.03704824671149254,5.310480117797852,-0.4578000009059906,-2.80784010887146,0.0,513760.0
1.0,33.66347885131836,28.882366180419922,-74.72835540771484,-67.28257751464844,0.0,0.0,-0.0,0.0,0.42755016684532166,0.8986793160438538,0.03704824671149254,5.310480117797852,-0.4578000009059906,-2.80784010887146,0.0,513761.0
1.0,30.937753677368164,34.79194259643555,-61.427520751953125,-55.22002029418945,0.0,0.0,-0.0,0.0,0.42846569418907166,0.9012427926063538,0.03723134845495224,3.113039970397949,-0.4120199978351593,-3.2961599826812744,0.0,513762.0
1.0,12.365804672241211,21.532373428344727,-14.575005531311035,-12.64748477935791,0.0,0.0,-0.0,0.0,0.42846569418907166,0.9012427926063538,0.03723134845495224,3.113039970397949,-0.4120199978351593,-3.2961599826812744,0.0,513763.0
1.0,-12.65434741973877,-3.537653923034668,40.37473678588867,37.13481140136719,0.0,0.0,-0.0,0.0,0.42846569418907166,0.9012427926063538,0.03723134845495224,3.113039970397949,-0.4120199978351593,-3.2961599826812744,0.0,513764.0
1.0,-31.099313735961914,-26.84017562866211,73.5442886352539,66.9856185913086,0.0,0.0,-0.0,0.0,0.42846569418907166,0.9012427926063538,0.03723134845495224,3.113039970397949,-0.4120199978351593,-3.2961599826812744,0.0,513765.0
1.0,-33.41472244262695,-35.54146957397461,65.62712860107422,59.45115280151367,0.0,0.0,0.0,0.0,0.42846569418907166,0.9012427926063538,0.03723134845495224,3.113039970397949,-0.4120199978351593,-3.2961599826812744,0.0,513766.0
1.0,-18.293256759643555,-24.617971420288086,20.03468132019043,17.8676815032959,0.0,0.0,0.0,0.0,0.42846569418907166,0.9012427926063538,0.03723134845495224,3.113039970397949,-0.4120199978351593,-3.2961599826812744,0.0,513767.0
1.0,7.01434850692749,0.17452295124530792,-37.83831787109375,-34.43406677246094,0.0,0.0,0.0,0.0,0.42846569418907166,0.9012427926063538,0.03723134845495224,3.113039970397949,-0.4120199978351593,-3.2961599826812744,0.0,513768.0
1.0,29.50412368774414,25.07813262939453,-74.84645080566406,-67.41015625,0.0,0.0,0.0,0.0,0.42846569418907166,0.9012427926063538,0.03723134845495224,3.113039970397949,-0.4120199978351593,-3.2961599826812744,0.0,513769.0
1.0,36.85010528564453,35.88136672973633,-69.46453094482422,-62.007118225097656,0.0,0.0,0.0,0.0,0.42846569418907166,0.9012427926063538,0.03723134845495224,3.113039970397949,-0.4120199978351593,-3.2961599826812744,0.0,513770.0
1.0,24.5852108001709,26.630233764648438,-25.38872528076172,-22.187339782714844,0.0,0.0,0.0,0.0,0.42846569418907166,0.9012427926063538,0.03723134845495224,3.113039970397949,-0.4120199978351593,-3.2961599826812744,0.0,513771.0
1.0,-1.4965180158615112,2.8481738567352295,31.832901000976562,28.728031158447266,0.0,0.0,0.0,0.0,0.42901501059532166,0.9009986519813538,0.03717031329870224,3.8302600383758545,-0.3357200026512146,-3.113039970397949,0.0,513772.0
1.0,-27.959388732910156,-22.37567901611328,71.2047348022461,63.207603454589844,0.0,0.0,0.0,0.0,0.42901501059532166,0.9009986519813538,0.03717031329870224,3.8302600383758545,-0.3357200026512146,-3.113039970397949,0.0,513773.0
1.0,-40.13754653930664,-35.340518951416016,72.39274597167969,63.68365478515625,0.0,0.0,0.0,0.0,0.42901501059532166,0.9009986519813538,0.03717031329870224,3.8302600383758545,-0.3357200026512146,-3.113039970397949,0.0,513774.0
1.0,-30.917024612426758,-28.76744842529297,34.99678039550781,30.175844192504883,0.0,0.0,0.0,0.0,0.42901501059532166,0.9009986519813538,0.03717031329870224,3.8302600383758545,-0.3357200026512146,-3.113039970397949,0.0,513775.0
1.0,-5.412508010864258,-5.951174259185791,-21.585874557495117,-20.203399658203125,0.0,0.0,0.0,0.0,0.42901501059532166,0.9009986519813538,0.03717031329870224,3.8302600383758545,-0.3357200026512146,-3.113039970397949,0.0,513776.0
1.0,22.539569854736328,20.783021926879883,-67.27130889892578,-60.945125579833984,0.0,0.0,0.0,0.0,0.42901501059532166,0.9009986519813538,0.03717031329870224,3.8302600383758545,-0.3357200026512146,-3.113039970397949,0.0,513777.0
1.0,38.02124786376953,36.7894401550293,-76.92389678955078,-69.42706298828125,0.0,0.0,0.0,0.0,0.42901501059532166,0.9009986519813538,0.03717031329870224,3.8302600383758545,-0.3357200026512146,-3.113039970397949,0.0,513778.0
1.0,32.77423095703125,33.427494049072266,-45.47673416137695,-40.72587966918945,0.0,0.0,0.0,0.0,0.42901501059532166,0.9009986519813538,0.03717031329870224,3.8302600383758545,-0.3357200026512146,-3.113039970397949,0.0,513779.0
1.0,9.785134315490723,12.584513664245605,9.820074081420898,9.544275283813477,0.0,0.0,0.0,0.0,0.42901501059532166,0.9009986519813538,0.03717031329870224,3.8302600383758545,-0.3357200026512146,-3.113039970397949,0.0,513780.0
1.0,-18.54230499267578,-15.044365882873535,60.06896209716797,54.99660873413086,0.0,0.0,0.0,0.0,0.42901501059532166,0.9009986519813538,0.03717031329870224,3.8302600383758545,-0.3357200026512146,-3.113039970397949,0.0,513781.0
1.0,-36.68827438354492,-35.36565399169922,78.77181243896484,71.74278259277344,0.0,0.0,0.0,0.0,0.42986950278282166,0.9008765816688538,0.03631582483649254,4.501699924468994,0.1678600013256073,-3.433500051498413,0.0,513782.0
1.0,-33.61382293701172,-37.62351608276367,55.62852096557617,50.66857147216797,0.0,0.0,0.0,0.0,0.42986950278282166,0.9008765816688538,0.03631582483649254,4.501699924468994,0.1678600013256073,-3.433500051498413,0.0,513783.0
1.0,-9.956398963928223,-20.19502067565918,2.9945287704467773,3.0002238750457764,0.0,0.0,0.0,0.0,0.42986950278282166,0.9008765816688538,0.03631582483649254,4.501699924468994,0.1678600013256073,-3.433500051498413,0.0,513784.0
1.0,20.207937240600586,7.881204605102539,-51.26462173461914,-46.100337982177734,0.0,0.0,0.0,0.0,0.42986950278282166,0.9008765816688538,0.03631582483649254,4.501699924468994,0.1678600013256073,-3.433500051498413,0.0,513785.0
1.0,38.02484893798828,31.16165542602539,-78.18356323242188,-70.47222900390625,0.0,0.0,0.0,0.0,0.42986950278282166,0.9008765816688538,0.03631582483649254,4.501699924468994,0.1678600013256073,-3.433500051498413,0.0,513786.0
1.0,33.50333023071289,36.788578033447266,-62.9087028503418,-56.607669830322266,0.0,0.0,0.0,0.0,0.42986950278282166,0.9008765816688538,0.03631582483649254,4.501699924468994,0.1678600013256073,-3.433500051498413,0.0,513787.0
1.0,10.974625587463379,22.28902816772461,-13.783884048461914,-12.19208812713623,0.0,0.0,0.0,0.0,0.42986950278282166,0.9008765816688538,0.03631582483649254,4.501699924468994,0.1678600013256073,-3.433500051498413,0.0,513788.0
1.0,-16.584501266479492,-3.8734676837921143,42.63364791870117,38.38046646118164,0.0,0.0,0.0,0.0,0.42986950278282166,0.9008765816688538,0.03631582483649254,4.501699924468994,0.1678600013256073,-3.433500051498413,0.0,513789.0
1.0,-35.42094039916992,-27.367420196533203,75.99626922607422,67.82369232177734,0.0,0.0,0.0,0.0,0.42986950278282166,0.9008765816688538,0.03631582483649254,4.501699924468994,0.1678600013256073,-3.433500051498413,0.0,513790.0
1.0,-36.41514205932617,-35.285762786865234,67.95014190673828,60.27108383178711,0.0,0.0,0.0,0.0,0.42986950278282166,0.9008765816688538,0.03631582483649254,4.501699924468994,0.1678600013256073,-3.433500051498413,0.0,513791.0
1.0,-18.63987159729004,-23.27263832092285,22.99944496154785,20.17542839050293,0.0,0.0,0.0,0.0,0.42718395590782166,0.9020972847938538,0.03613271936774254,4.01338005065918,-0.2289000004529953,-2.8841400146484375,0.0,513792.0
1.0,9.731789588928223,1.9324856996536255,-33.879600524902344,-30.3168888092041,0.0,0.0,0.0,0.0,0.42718395590782166,0.9020972847938538,0.03613271936774254,4.01338005065918,-0.2289000004529953,-2.8841400146484375,0.0,513793.0
1.0,34.035369873046875,26.377952575683594,-71.63322448730469,-63.87224197387695,0.0,0.0,0.0,0.0,0.42718395590782166,0.9020972847938538,0.03613271936774254,4.01338005065918,-0.2289000004529953,-2.8841400146484375,0.0,513794.0
1.0,39.99631881713867,36.74554443359375,-70.6689224243164,-63.093414306640625,0.0,0.0,0.0,-0.0,0.42718395590782166,0.9020972847938538,0.03613271936774254,4.01338005065918,-0.2289000004529953,-2.8841400146484375,0.0,513795.0
1.0,23.052112579345703,27.62957763671875,-33.02870178222656,-29.600975036621094,0.0,0.0,0.0,-0.0,0.42718395590782166,0.9020972847938538,0.03613271936774254,4.01338005065918,-0.2289000004529953,-2.8841400146484375,0.0,513796.0
1.0,-7.253235340118408,3.840942859649658,21.466739654541016,19.074310302734375,0.0,0.0,0.0,-0.0,0.42718395590782166,0.9020972847938538,0.03613271936774254,4.01338005065918,-0.2289000004529953,-2.8841400146484375,0.0,513797.0
1.0,-33.02790451049805,-22.43324851989746,65.43115997314453,58.450321197509766,0.0,0.0,0.0,-0.0,0.42718395590782166,0.9020972847938538,0.03613271936774254,4.01338005065918,-0.2289000004529953,-2.8841400146484375,0.0,513798.0
1.0,-39.67300033569336,-37.423587799072266,74.99315643310547,67.11653137207031,0.0,0.0,0.0,-0.0,0.42718395590782166,0.9020972847938538,0.03613271936774254,4.01338005065918,-0.2289000004529953,-2.8841400146484375,0.0,513799.0
1.0,-24.35760498046875,-32.95701599121094,43.22137451171875,38.9012451171875,0.0,0.0,0.0,-0.0,0.42718395590782166,0.9020972847938538,0.03613271936774254,4.01338005065918,-0.2289000004529953,-2.8841400146484375,0.0,513800.0
1.0,3.6825742721557617,-11.23892593383789,-13.33259391784668,-11.366278648376465,0.0,0.0,0.0,-0.0,0.42718395590782166,0.9020972847938538,0.03613271936774254,4.01338005065918,-0.2289000004529953,-2.8841400146484375,0.0,513801.0
1.0,29.068674087524414,16.171463012695312,-62.84849166870117,-55.43844223022461,0.0,0.0,0.0,-0.0,0.42645153403282166,0.9036841988563538,0.03747548907995224,3.8302600383758545,-0.2746799886226654,-2.4416000843048096,0.0,513802.0
1.0,38.66664123535156,34.47316360473633,-76.44474029541016,-67.76165008544922,0.0,0.0,0.0,-0.0,0.42645153403282166,0.9036841988563538,0.03747548907995224,3.8302600383758545,-0.2746799886226654,-2.4416000843048096,0.0,513803.0
1.0,28.78199577331543,33.96626663208008,-46.202579498291016,-41.183349609375,0.0,0.0,0.0,-0.0,0.42645153403282166,0.9036841988563538,0.03747548907995224,3.8302600383758545,-0.2746799886226654,-2.4416000843048096,0.0,513804.0
1.0,5.164907455444336,15.44054126739502,9.603677749633789,8.244706153869629,0.0,0.0,0.0,-0.0,0.42645153403282166,0.9036841988563538,0.03747548907995224,3.8302600383758545,-0.2746799886226654,-2.4416000843048096,0.0,513805.0
1.0,-22.01771354675293,-10.981364250183105,58.39434051513672,51.56415557861328,0.0,0.0,0.0,-0.0,0.42645153403282166,0.9036841988563538,0.03747548907995224,3.8302600383758545,-0.2746799886226654,-2.4416000843048096,0.0,513806.0
1.0,-40.317325592041016,-31.233427047729492,73.07941436767578,64.58800506591797,0.0,0.0,0.0,-0.0,0.42645153403282166,0.9036841988563538,0.03747548907995224,3.8302600383758545,-0.2746799886226654,-2.4416000843048096,0.0,513807.0
1.0,-38.397037506103516,-34.329078674316406,47.25790023803711,41.536781311035156,0.0,0.0,0.0,-0.0,0.42645153403282166,0.9036841988563538,0.03747548907995224,3.8302600383758545,-0.2746799886226654,-2.4416000843048096,0.0,513808.0
1.0,-14.338915824890137,-18.524581909179688,-3.176137685775757,-3.4713246822357178,0.0,0.0,0.0,-0.0,0.42645153403282166,0.9036841988563538,0.03747548907995224,3.8302600383758545,-0.2746799886226654,-2.4416000843048096,0.0,513809.0
1.0,19.78333282470703,7.468003749847412,-50.81708526611328,-45.99826431274414,0.0,0.0,0.0,-0.0,0.42645153403282166,0.9036841988563538,0.03747548907995224,3.8302600383758545,-0.2746799886226654,-2.4416000843048096,0.0,513810.0
1.0,43.76420211791992,29.108783721923828,-70.59245300292969,-63.55634307861328,0.0,0.0,0.0,-0.0,0.42645153403282166,0.9036841988563538,0.03747548907995224,3.8302600383758545,-0.2746799886226654,-2.4416000843048096,0.0,513811.0
1.0,42.89596176147461,34.30828094482422,-52.01298141479492,-46.50690460205078,0.0,0.0,0.0,-0.0,0.42700085043907166,0.9029517769813538,0.03698721155524254,5.005280017852783,0.1373399943113327,-2.456860065460205,0.0,513812.0
1.0,18.3416690826416,20.53133201599121,-5.055699825286865,-3.709481954574585,0.0,0.0,0.0,-0.0,0.42700085043907166,0.9029517769813538,0.03698721155524254,5.005280017852783,0.1373399943113327,-2.456860065460205,0.0,513813.0
1.0,-14.94548225402832,-4.245251178741455,45.55911636352539,42.175140380859375,0.0,0.0,0.0,-0.0,0.42700085043907166,0.9029517769813538,0.03698721155524254,5.005280017852783,0.1373399943113327,-2.456860065460205,0.0,513814.0
1.0,-38.916038513183594,-26.21901512145996,72.67626953125,66.12267303466797,0.0,0.0,0.0,-0.0,0.42700085043907166,0.9029517769813538,0.03698721155524254,5.005280017852783,0.1373399943113327,-2.456860065460205,0.0,513815.0
1.0,-42.212066650390625,-33.268348693847656,60.51141357421875,54.03819274902344,0.0,0.0,0.0,-0.0,0.42700085043907166,0.9029517769813538,0.03698721155524254,5.005280017852783,0.1373399943113327,-2.456860065460205,0.0,513816.0
1.0,-24.241697311401367,-21.743328094482422,14.771653175354004,11.999149322509766,0.0,0.0,0.0,-0.0,0.42700085043907166,0.9029517769813538,0.03698721155524254,5.005280017852783,0.1373399943113327,-2.456860065460205,0.0,513817.0
1.0,5.567625522613525,1.8262407779693604,-40.291465759277344,-37.282386779785156,0.0,0.0,0.0,-0.0,0.42700085043907166,0.9029517769813538,0.03698721155524254,5.005280017852783,0.1373399943113327,-2.456860065460205,0.0,513818.0
1.0,31.829242706298828,24.413883209228516,-75.08821868896484,-67.27401733398438,0.0,0.0,0.0,-0.0,0.42700085043907166,0.9029517769813538,0.03698721155524254,5.005280017852783,0.1373399943113327,-2.456860065460205,0.0,513819.0
1.0,40.862796783447266,33.397579193115234,-69.94284057617188,-61.29466247558594,0.0,0.0,0.0,-0.0,0.42700085043907166,0.9029517769813538,0.03698721155524254,5.005280017852783,0.1373399943113327,-2.456860065460205,0.0,513820.0
1.0,28.467164993286133,23.73423957824707,-26.934343338012695,-22.20921516418457,0.0,0.0,0.0,-0.0,0.42700085043907166,0.9029517769813538,0.03698721155524254,5.005280017852783,0.1373399943113327,-2.456860065460205,0.0,513821.0
1.0,1.874745488166809,0.6566087007522583,30.970884323120117,29.162761688232422,0.0,0.0,0.0,-0.0,0.42791637778282166,0.9035621285438538,0.03613271936774254,4.593259811401367,0.2899399995803833,-2.10588002204895,0.0,513822.0
1.0,-24.377519607543945,-23.43596076965332,73.34496307373047,66.06924438476562,0.0,0.0,0.0,-0.0,0.42791637778282166,0.9035621285438538,0.03613271936774254,4.593259811401367,0.2899399995803833,-2.10588002204895,0.0,513823.0
1.0,-35.86003112792969,-35.386878967285156,78.02761840820312,69.23810577392578,0.0,0.0,0.0,-0.0,0.42791637778282166,0.9035621285438538,0.03613271936774254,4.593259811401367,0.2899399995803833,-2.10588002204895,0.0,513824.0
1.0,-26.92321014404297,-28.395158767700195,41.876705169677734,36.04241180419922,0.0,0.0,0.0,-0.0,0.42791637778282166,0.9035621285438538,0.03613271936774254,4.593259811401367,0.2899399995803833,-2.10588002204895,0.0,513825.0
1.0,-4.315579414367676,-5.914625644683838,-17.486543655395508,-17.632068634033203,0.0,0.0,0.0,-0.0,0.42791637778282166,0.9035621285438538,0.03613271936774254,4.593259811401367,0.2899399995803833,-2.10588002204895,0.0,513826.0
1.0,18.219877243041992,20.21982192993164,-69.2505874633789,-63.98320007324219,0.0,0.0,0.0,-0.0,0.42791637778282166,0.9035621285438538,0.03613271936774254,4.593259811401367,0.2899399995803833,-2.10588002204895,0.0,513827.0
1.0,28.383020401000977,36.00761032104492,-84.99884033203125,-77.546630859375,0.0,0.0,0.0,-0.0,0.42791637778282166,0.9035621285438538,0.03613271936774254,4.593259811401367,0.2899399995803833,-2.10588002204895,0.0,513828.0
1.0,21.51065444946289,32.94929504394531,-55.915428161621094,-50.58834457397461,0.0,0.0,0.0,-0.0,0.42791637778282166,0.9035621285438538,0.03613271936774254,4.593259811401367,0.2899399995803833,-2.10588002204895,0.0,513829.0
1.0,2.5166914463043213,12.694466590881348,2.154461145401001,2.460200548171997,0.0,0.0,0.0,-0.0,0.42791637778282166,0.9035621285438538,0.03613271936774254,4.593259811401367,0.2899399995803833,-2.10588002204895,0.0,513830.0
1.0,-17.500167846679688,-14.195939064025879,58.99586868286133,54.05739212036133,0.0,0.0,0.0,-0.0,0.42791637778282166,0.9035621285438538,0.03613271936774254,4.593259811401367,0.2899399995803833,-2.10588002204895,0.0,513831.0
1.0,-27.366960525512695,-33.5512809753418,85.44784545898438,77.73696899414062,0.0,0.0,0.0,-0.0,0.42706188559532166,0.9038062691688538,0.03582754358649254,3.1282999515533447,-0.3509800136089325,-2.6247200965881348,0.0,513832.0
1.0,-21.512449264526367,-34.76582717895508,67.41507720947266,61.295528411865234,0.0,0.0,0.0,-0.0,0.42706188559532166,0.9038062691688538,0.03582754358649254,3.1282999515533447,-0.3509800136089325,-2.6247200965881348,0.0,513833.0
1.0,-2.7367334365844727,-16.785926818847656,13.882231712341309,13.398961067199707,0.0,0.0,0.0,-0.0,0.42706188559532166,0.9038062691688538,0.03582754358649254,3.1282999515533447,-0.3509800136089325,-2.6247200965881348,0.0,513834.0
1.0,18.834806442260742,10.964659690856934,-46.9989013671875,-40.91701126098633,0.0,0.0,0.0,-0.0,0.42706188559532166,0.9038062691688538,0.03582754358649254,3.1282999515533447,-0.3509800136089325,-2.6247200965881348,0.0,513835.0
1.0,30.699262619018555,33.138763427734375,-82.18824768066406,-72.61530303955078,0.0,0.0,0.0,-0.0,0.42706188559532166,0.9038062691688538,0.03582754358649254,3.1282999515533447,-0.3509800136089325,-2.6247200965881348,0.0,513836.0
1.0,25.767454147338867,37.003173828125,-72.2105941772461,-64.30230712890625,0.0,0.0,0.0,-0.0,0.42706188559532166,0.9038062691688538,0.03582754358649254,3.1282999515533447,-0.3509800136089325,-2.6247200965881348,0.0,513837.0
1.0,6.629507064819336,20.22395133972168,-23.422670364379883,-21.380765914916992,0.0,0.0,0.0,-0.0,0.42706188559532166,0.9038062691688538,0.03582754358649254,3.1282999515533447,-0.3509800136089325,-2.6247200965881348,0.0,513838.0
1.0,-16.880008697509766,-8.124670028686523,36.365257263183594,31.468021392822266,0.0,0.0,0.0,-0.0,0.42706188559532166,0.9038062691688538,0.03582754358649254,3.1282999515533447,-0.3509800136089325,-2.6247200965881348,0.0,513839.0
1.0,-32.36380386352539,-32.85212707519531,74.56793212890625,65.31922149658203,0.0,0.0,0.0,-0.0,0.42706188559532166,0.9038062691688538,0.03582754358649254,3.1282999515533447,-0.3509800136089325,-2.6247200965881348,0.0,513840.0
1.0,-30.636871337890625,-40.61486053466797,71.39649200439453,62.68395233154297,0.0,0.0,0.0,-0.0,0.42706188559532166,0.9038062691688538,0.03582754358649254,3.1282999515533447,-0.3509800136089325,-2.6247200965881348,0.0,513841.0
1.0,-11.534215927124023,-27.14006233215332,29.88884162902832,26.177661895751953,0.0,0.0,0.0,-0.0,0.42346084117889404,0.9023414254188538,0.03674307093024254,3.5097999572753906,-0.5340999960899353,-2.6094601154327393,0.0,513842.0
1.0,15.551506042480469,0.46950462460517883,-26.66266441345215,-23.825389862060547,0.0,0.0,0.0,-0.0,0.42346084117889404,0.9023414254188538,0.03674307093024254,3.5097999572753906,-0.5340999960899353,-2.6094601154327393,0.0,513843.0
1.0,36.045372009277344,27.590585708618164,-67.1107177734375,-59.84717559814453,0.0,0.0,0.0,-0.0,0.42346084117889404,0.9023414254188538,0.03674307093024254,3.5097999572753906,-0.5340999960899353,-2.6094601154327393,0.0,513844.0
1.0,37.37177276611328,39.90937805175781,-69.30401611328125,-61.966148376464844,0.0,0.0,0.0,-0.0,0.42346084117889404,0.9023414254188538,0.03674307093024254,3.5097999572753906,-0.5340999960899353,-2.6094601154327393,0.0,513845.0
1.0,17.38329315185547,31.22539710998535,-33.19851303100586,-29.796524047851562,0.0,0.0,0.0,-0.0,0.42346084117889404,0.9023414254188538,0.03674307093024254,3.5097999572753906,-0.5340999960899353,-2.6094601154327393,0.0,513846.0
1.0,-13.371199607849121,6.575413227081299,20.219728469848633,18.039756774902344,0.0,0.0,0.0,-0.0,0.42346084117889404,0.9023414254188538,0.03674307093024254,3.5097999572753906,-0.5340999960899353,-2.6094601154327393,0.0,513847.0
1.0,-38.11604690551758,-20.77876091003418,61.85979461669922,55.498497009277344,0.0,0.0,-0.0,-0.0,0.42346084117889404,0.9023414254188538,0.03674307093024254,3.5097999572753906,-0.5340999960899353,-2.6094601154327393,0.0,513848.0
1.0,-43.06690216064453,-36.39164352416992,69.45955657958984,62.65977478027344,0.0,0.0,-0.0,-0.0,0.42346084117889404,0.9023414254188538,0.03674307093024254,3.5097999572753906,-0.5340999960899353,-2.6094601154327393,0.0,513849.0
1.0,-24.859525680541992,-32.25658416748047,38.99630355834961,35.962100982666016,0.0,0.0,-0.0,-0.0,0.42346084117889404,0.9023414254188538,0.03674307093024254,3.5097999572753906,-0.5340999960899353,-2.6094601154327393,0.0,513850.0
1.0,7.367023468017578,-10.835251808166504,-12.943772315979004,-9.843257904052734,0.0,0.0,-0.0,-0.0,0.42346084117889404,0.9023414254188538,0.03674307093024254,3.5097999572753906,-0.5340999960899353,-2.6094601154327393,0.0,513851.0
1.0,36.772335052490234,16.356233596801758,-57.760528564453125,-49.63739776611328,0.0,0.0,-0.0,-0.0,0.42339980602264404,0.9017310738563538,0.03649893030524254,5.188399791717529,-0.2289000004529953,-2.0906200408935547,0.0,513852.0
1.0,47.470855712890625,34.503150939941406,-70.47795104980469,-61.75137710571289,0.0,0.0,-0.0,-0.0,0.42339980602264404,0.9017310738563538,0.03649893030524254,5.188399791717529,-0.2289000004529953,-2.0906200408935547,0.0,513853.0
1.0,33.06117248535156,33.73335266113281,-44.83696365356445,-40.677711486816406,0.0,0.0,-0.0,-0.0,0.42339980602264404,0.9017310738563538,0.03649893030524254,5.188399791717529,-0.2289000004529953,-2.0906200408935547,0.0,513854.0
1.0,0.4159673750400543,14.86238956451416,3.834172487258911,0.805025577545166,0.0,0.0,-0.0,-0.0,0.42339980602264404,0.9017310738563538,0.03649893030524254,5.188399791717529,-0.2289000004529953,-2.0906200408935547,0.0,513855.0
1.0,-33.70956802368164,-11.65999984741211,49.177391052246094,40.437095642089844,0.0,0.0,-0.0,-0.0,0.42339980602264404,0.9017310738563538,0.03649893030524254,5.188399791717529,-0.2289000004529953,-2.0906200408935547,0.0,513856.0
1.0,-51.27980041503906,-31.477664947509766,67.1371841430664,57.3433837890625,0.0,0.0,-0.0,-0.0,0.42339980602264404,0.9017310738563538,0.03649893030524254,5.188399791717529,-0.2289000004529953,-2.0906200408935547,0.0,513857.0
