CH_1,CH_2,CH_3,CH_4,CH_5,CH_6,CH_7,CH_8,CH_9,CH_10,CH_11,CH_12,CH_13,CH_14,CH_15,CH_16,CH_17
1.0,-2.568272113800049,-33.4771614074707,75.29939270019531,0.9105291366577148,0.0,0.0,-0.0,0.0,0.5064073801040649,0.8793312311172485,0.10693331807851791,-6.62283992767334,-16.526580810546875,24.766979217529297,0.0,533352.0
1.0,-32.30601501464844,-15.515608787536621,-26.964418411254883,-95.19171905517578,0.0,0.0,-0.0,0.0,0.5064073801040649,0.8793312311172485,0.10693331807851791,-6.62283992767334,-16.526580810546875,24.766979217529297,0.0,533353.0
1.0,-45.709983825683594,10.583456993103027,-117.97996520996094,-148.74514770507812,0.0,0.0,-0.0,0.0,0.5064073801040649,0.8793312311172485,0.10693331807851791,-6.62283992767334,-16.526580810546875,24.766979217529297,0.0,533354.0
1.0,-43.05941390991211,30.110454559326172,-156.5067596435547,-146.9512939453125,0.0,0.0,-0.0,0.0,0.5064073801040649,0.8793312311172485,0.10693331807851791,-6.62283992767334,-16.526580810546875,24.766979217529297,0.0,533355.0
1.0,-27.88133430480957,32.268917083740234,-121.82247924804688,-82.07704162597656,0.0,0.0,-0.0,0.0,0.5064073801040649,0.8793312311172485,0.10693331807851791,-6.62283992767334,-16.526580810546875,24.766979217529297,0.0,533356.0
1.0,1.569158911705017,16.686298370361328,-23.588573455810547,29.735305786132812,0.0,0.0,-0.0,0.0,0.5064073801040649,0.8793312311172485,0.10693331807851791,-6.62283992767334,-16.526580810546875,24.766979217529297,0.0,533357.0
1.0,39.21699523925781,-7.366664886474609,93.14506530761719,138.40139770507812,0.0,0.0,-0.0,0.0,0.5064073801040649,0.8793312311172485,0.10693331807851791,-6.62283992767334,-16.526580810546875,24.766979217529297,0.0,533358.0
1.0,59.53059768676758,-26.984771728515625,160.4155731201172,179.9613800048828,0.0,0.0,-0.0,0.0,0.5064073801040649,0.8793312311172485,0.10693331807851791,-6.62283992767334,-16.526580810546875,24.766979217529297,0.0,533359.0
1.0,41.46821212768555,-31.951839447021484,133.07000732421875,125.44538879394531,0.0,0.0,-0.0,0.0,0.5064073801040649,0.8793312311172485,0.10693331807851791,-6.62283992767334,-16.526580810546875,24.766979217529297,0.0,533360.0
1.0,-3.6153860092163086,-19.566068649291992,28.00982666015625,8.738017082214355,0.0,0.0,-0.0,0.0,0.5064073801040649,0.8793312311172485,0.10693331807851791,-6.62283992767334,-16.526580810546875,24.766979217529297,0.0,533361.0
1.0,-44.13632583618164,3.5816738605499268,-89.9094467163086,-106.572998046875,0.0,0.0,-0.0,0.0,0.5145250558853149,0.8830543756484985,0.08544900268316269,-0.2899399995803833,-10.651479721069336,28.810880661010742,0.0,533362.0
1.0,-55.866783142089844,24.91302490234375,-150.76861572265625,-165.22564697265625,0.0,0.0,-0.0,0.0,0.5145250558853149,0.8830543756484985,0.08544900268316269,-0.2899399995803833,-10.651479721069336,28.810880661010742,0.0,533363.0
1.0,-34.763851165771484,32.972564697265625,-121.09955596923828,-141.9440155029297,0.0,0.0,-0.0,0.0,0.5145250558853149,0.8830543756484985,0.08544900268316269,-0.2899399995803833,-10.651479721069336,28.810880661010742,0.0,533364.0
1.0,2.442617654800415,23.579782485961914,-24.792030334472656,-57.37099838256836,0.0,0.0,-0.0,0.0,0.5145250558853149,0.8830543756484985,0.08544900268316269,-0.2899399995803833,-10.651479721069336,28.810880661010742,0.0,533365.0
1.0,33.2598991394043,1.6963396072387695,80.86872100830078,45.78335952758789,0.0,0.0,-0.0,0.0,0.5145250558853149,0.8830543756484985,0.08544900268316269,-0.2899399995803833,-10.651479721069336,28.810880661010742,0.0,533366.0
1.0,45.52798843383789,-21.088945388793945,142.0501708984375,127.22300720214844,0.0,0.0,-0.0,0.0,0.5145250558853149,0.8830543756484985,0.08544900268316269,-0.2899399995803833,-10.651479721069336,28.810880661010742,0.0,533367.0
1.0,36.00906753540039,-32.52336120605469,126.62422943115234,146.08473205566406,0.0,0.0,0.0,0.0,0.5145250558853149,0.8830543756484985,0.08544900268316269,-0.2899399995803833,-10.651479721069336,28.810880661010742,0.0,533368.0
1.0,9.829451560974121,-26.339332580566406,42.48539733886719,86.65265655517578,0.0,0.0,0.0,0.0,0.5145250558853149,0.8830543756484985,0.08544900268316269,-0.2899399995803833,-10.651479721069336,28.810880661010742,0.0,533369.0
1.0,-17.43927764892578,-5.735971927642822,-61.25601577758789,-13.902069091796875,0.0,0.0,0.0,0.0,0.5145250558853149,0.8830543756484985,0.08544900268316269,-0.2899399995803833,-10.651479721069336,28.810880661010742,0.0,533370.0
1.0,-32.79851150512695,17.888694763183594,-129.27212524414062,-92.7051773071289,0.0,0.0,0.0,0.0,0.5145250558853149,0.8830543756484985,0.08544900268316269,-0.2899399995803833,-10.651479721069336,28.810880661010742,0.0,533371.0
1.0,-32.62645721435547,31.194053649902344,-130.13291931152344,-106.3034896850586,0.0,0.0,0.0,0.0,0.5153185129165649,0.8799415826797485,0.07525615394115448,4.822159767150879,-6.607580184936523,31.20669937133789,0.0,533372.0
1.0,-14.184004783630371,27.252592086791992,-62.47727584838867,-47.22019958496094,0.0,0.0,0.0,0.0,0.5153185129165649,0.8799415826797485,0.07525615394115448,4.822159767150879,-6.607580184936523,31.20669937133789,0.0,533373.0
1.0,16.153636932373047,8.844538688659668,40.496253967285156,46.604366302490234,0.0,0.0,0.0,0.0,0.5153185129165649,0.8799415826797485,0.07525615394115448,4.822159767150879,-6.607580184936523,31.20669937133789,0.0,533374.0
1.0,31.850631713867188,-14.58489990234375,116.64291381835938,94.09619903564453,0.0,0.0,0.0,0.0,0.5153185129165649,0.8799415826797485,0.07525615394115448,4.822159767150879,-6.607580184936523,31.20669937133789,0.0,533375.0
1.0,17.792470932006836,-30.872562408447266,120.71246337890625,50.89374923706055,0.0,0.0,0.0,0.0,0.5153185129165649,0.8799415826797485,0.07525615394115448,4.822159767150879,-6.607580184936523,31.20669937133789,0.0,533376.0
1.0,-1.3888105154037476,-29.95408058166504,67.63613891601562,-23.02058982849121,0.0,0.0,0.0,0.0,0.5153185129165649,0.8799415826797485,0.07525615394115448,4.822159767150879,-6.607580184936523,31.20669937133789,0.0,533377.0
1.0,-3.4352123737335205,-11.079292297363281,-2.4319989681243896,-58.45568084716797,0.0,0.0,0.0,0.0,0.5153185129165649,0.8799415826797485,0.07525615394115448,4.822159767150879,-6.607580184936523,31.20669937133789,0.0,533378.0
1.0,-4.413563251495361,14.506349563598633,-72.50152587890625,-72.0888442993164,0.0,0.0,0.0,0.0,0.5153185129165649,0.8799415826797485,0.07525615394115448,4.822159767150879,-6.607580184936523,31.20669937133789,0.0,533379.0
1.0,-19.4199161529541,31.142452239990234,-123.46949005126953,-86.51187896728516,0.0,0.0,0.0,0.0,0.5153185129165649,0.8799415826797485,0.07525615394115448,4.822159767150879,-6.607580184936523,31.20669937133789,0.0,533380.0
1.0,-32.38917541503906,29.793657302856445,-117.36166381835938,-66.0529556274414,0.0,0.0,0.0,0.0,0.5153185129165649,0.8799415826797485,0.07525615394115448,4.822159767150879,-6.607580184936523,31.20669937133789,0.0,533381.0
1.0,-23.7255859375,12.255154609680176,-43.016197204589844,11.186113357543945,0.0,0.0,0.0,0.0,0.5152574777603149,0.8589455485343933,0.07403545826673508,4.593259811401367,-3.8912999629974365,28.063140869140625,0.0,533382.0
1.0,2.602447271347046,-11.907187461853027,58.28135299682617,103.77538299560547,0.0,0.0,0.0,0.0,0.5152574777603149,0.8589455485343933,0.07403545826673508,4.593259811401367,-3.8912999629974365,28.063140869140625,0.0,533383.0
1.0,25.777921676635742,-30.266681671142578,123.19924926757812,147.23037719726562,0.0,0.0,0.0,0.0,0.5152574777603149,0.8589455485343933,0.07403545826673508,4.593259811401367,-3.8912999629974365,28.063140869140625,0.0,533384.0
1.0,28.693740844726562,-33.08646011352539,110.0841064453125,105.68820190429688,0.0,0.0,0.0,0.0,0.5152574777603149,0.8589455485343933,0.07403545826673508,4.593259811401367,-3.8912999629974365,28.063140869140625,0.0,533385.0
1.0,11.97601318359375,-18.513322830200195,27.583316802978516,-1.4640809297561646,0.0,0.0,0.0,0.0,0.5152574777603149,0.8589455485343933,0.07403545826673508,4.593259811401367,-3.8912999629974365,28.063140869140625,0.0,533386.0
1.0,-6.2793169021606445,6.293069362640381,-66.3409652709961,-103.88141632080078,0.0,0.0,0.0,0.0,0.5152574777603149,0.8589455485343933,0.07403545826673508,4.593259811401367,-3.8912999629974365,28.063140869140625,0.0,533387.0
1.0,-7.9188232421875,28.494176864624023,-105.58008575439453,-130.38587951660156,0.0,0.0,0.0,0.0,0.5152574777603149,0.8589455485343933,0.07403545826673508,4.593259811401367,-3.8912999629974365,28.063140869140625,0.0,533388.0
1.0,8.303800582885742,36.11130905151367,-65.81559753417969,-67.1381607055664,0.0,0.0,0.0,0.0,0.5152574777603149,0.8589455485343933,0.07403545826673508,4.593259811401367,-3.8912999629974365,28.063140869140625,0.0,533389.0
1.0,29.205432891845703,25.027666091918945,24.476415634155273,38.5860595703125,0.0,0.0,0.0,0.0,0.5152574777603149,0.8589455485343933,0.07403545826673508,4.593259811401367,-3.8912999629974365,28.063140869140625,0.0,533390.0
1.0,35.524505615234375,0.9735672473907471,106.66509246826172,119.69229888916016,0.0,0.0,0.0,0.0,0.5152574777603149,0.8589455485343933,0.07403545826673508,4.593259811401367,-3.8912999629974365,28.063140869140625,0.0,533391.0
1.0,11.199036598205566,-24.039737701416016,122.16410827636719,125.01799011230469,0.0,0.0,0.0,0.0,0.5203844308853149,0.8421609401702881,0.08001688867807388,-0.045779999345541,3.525059938430786,17.96101951599121,0.0,533392.0
1.0,-35.654380798339844,-37.08609390258789,53.800140380859375,48.39314651489258,0.0,0.0,0.0,0.0,0.5203844308853149,0.8421609401702881,0.08001688867807388,-0.045779999345541,3.525059938430786,17.96101951599121,0.0,533393.0
1.0,-68.32018280029297,-30.31227684020996,-51.21569061279297,-55.20446014404297,0.0,0.0,0.0,0.0,0.5203844308853149,0.8421609401702881,0.08001688867807388,-0.045779999345541,3.525059938430786,17.96101951599121,0.0,533394.0
1.0,-54.55025100708008,-6.062525272369385,-119.79872131347656,-112.578369140625,0.0,0.0,0.0,0.0,0.5203844308853149,0.8421609401702881,0.08001688867807388,-0.045779999345541,3.525059938430786,17.96101951599121,0.0,533395.0
1.0,-0.3593851625919342,22.722148895263672,-113.76174926757812,-98.85235595703125,0.0,0.0,0.0,0.0,0.5203844308853149,0.8421609401702881,0.08001688867807388,-0.045779999345541,3.525059938430786,17.96101951599121,0.0,533396.0
1.0,52.93214416503906,39.15378952026367,-51.411720275878906,-48.31892776489258,0.0,0.0,0.0,-0.0,0.5203844308853149,0.8421609401702881,0.08001688867807388,-0.045779999345541,3.525059938430786,17.96101951599121,0.0,533397.0
1.0,65.31291198730469,33.23232650756836,19.39457893371582,-8.006668090820312,0.0,0.0,0.0,-0.0,0.5203844308853149,0.8421609401702881,0.08001688867807388,-0.045779999345541,3.525059938430786,17.96101951599121,0.0,533398.0
1.0,33.23000717163086,8.572310447692871,65.53402709960938,14.166441917419434,0.0,0.0,0.0,-0.0,0.5203844308853149,0.8421609401702881,0.08001688867807388,-0.045779999345541,3.525059938430786,17.96101951599121,0.0,533399.0
1.0,-11.185256958007812,-20.32426643371582,82.90067291259766,43.49898910522461,0.0,0.0,0.0,-0.0,0.5203844308853149,0.8421609401702881,0.08001688867807388,-0.045779999345541,3.525059938430786,17.96101951599121,0.0,533400.0
1.0,-35.938682556152344,-37.346282958984375,72.60581970214844,79.45467376708984,0.0,0.0,0.0,-0.0,0.5203844308853149,0.8421609401702881,0.08001688867807388,-0.045779999345541,3.525059938430786,17.96101951599121,0.0,533401.0
1.0,-36.79621124267578,-34.01705551147461,28.462148666381836,84.26698303222656,0.0,0.0,0.0,-0.0,0.5153795480728149,0.8292214870452881,0.0932004451751709,-8.316699981689453,-1.388659954071045,6.6686201095581055,0.0,533402.0
1.0,-25.050613403320312,-12.923918724060059,-39.17816162109375,43.42036437988281,0.0,0.0,0.0,-0.0,0.5153795480728149,0.8292214870452881,0.0932004451751709,-8.316699981689453,-1.388659954071045,6.6686201095581055,0.0,533403.0
1.0,-8.727944374084473,14.64272403717041,-91.37271881103516,-17.929977416992188,0.0,0.0,0.0,-0.0,0.5153795480728149,0.8292214870452881,0.0932004451751709,-8.316699981689453,-1.388659954071045,6.6686201095581055,0.0,533404.0
1.0,4.387321472167969,33.87721633911133,-92.57246398925781,-78.24840545654297,0.0,0.0,0.0,-0.0,0.5153795480728149,0.8292214870452881,0.0932004451751709,-8.316699981689453,-1.388659954071045,6.6686201095581055,0.0,533405.0
1.0,5.790916919708252,34.22142791748047,-44.011695861816406,-116.45275115966797,0.0,0.0,0.0,-0.0,0.5153795480728149,0.8292214870452881,0.0932004451751709,-8.316699981689453,-1.388659954071045,6.6686201095581055,0.0,533406.0
1.0,-2.2335941791534424,15.778464317321777,23.380306243896484,-97.86196899414062,0.0,0.0,0.0,-0.0,0.5153795480728149,0.8292214870452881,0.0932004451751709,-8.316699981689453,-1.388659954071045,6.6686201095581055,0.0,533407.0
1.0,-4.316741466522217,-11.03836727142334,78.27764129638672,-15.777857780456543,0.0,0.0,0.0,-0.0,0.5153795480728149,0.8292214870452881,0.0932004451751709,-8.316699981689453,-1.388659954071045,6.6686201095581055,0.0,533408.0
1.0,9.233884811401367,-31.540943145751953,98.89178466796875,82.09051513671875,0.0,0.0,0.0,-0.0,0.5153795480728149,0.8292214870452881,0.0932004451751709,-8.316699981689453,-1.388659954071045,6.6686201095581055,0.0,533409.0
1.0,29.259628295898438,-34.63346481323242,72.21685028076172,130.49449157714844,0.0,0.0,0.0,-0.0,0.5153795480728149,0.8292214870452881,0.0932004451751709,-8.316699981689453,-1.388659954071045,6.6686201095581055,0.0,533410.0
1.0,41.908206939697266,-18.524940490722656,9.486501693725586,104.62544250488281,0.0,0.0,0.0,-0.0,0.5153795480728149,0.8292214870452881,0.0932004451751709,-8.316699981689453,-1.388659954071045,6.6686201095581055,0.0,533411.0
1.0,42.05870056152344,8.38151741027832,-51.34853744506836,36.35298538208008,0.0,0.0,0.0,-0.0,0.5200182199478149,0.8330667018890381,0.10119602829217911,-10.529399871826172,2.5331599712371826,6.271860122680664,0.0,533412.0
1.0,27.486108779907227,31.23952293395996,-76.76346588134766,-24.930213928222656,0.0,0.0,0.0,-0.0,0.5200182199478149,0.8330667018890381,0.10119602829217911,-10.529399871826172,2.5331599712371826,6.271860122680664,0.0,533413.0
1.0,-6.558261871337891,36.58156204223633,-66.7767105102539,-60.69275665283203,0.0,0.0,0.0,-0.0,0.5200182199478149,0.8330667018890381,0.10119602829217911,-10.529399871826172,2.5331599712371826,6.271860122680664,0.0,533414.0
1.0,-57.83601379394531,20.787229537963867,-45.54447937011719,-83.30216979980469,0.0,0.0,0.0,-0.0,0.5200182199478149,0.8330667018890381,0.10119602829217911,-10.529399871826172,2.5331599712371826,6.271860122680664,0.0,533415.0
1.0,-101.75110626220703,-7.302285194396973,-24.08367347717285,-89.10478973388672,0.0,0.0,0.0,-0.0,0.5200182199478149,0.8330667018890381,0.10119602829217911,-10.529399871826172,2.5331599712371826,6.271860122680664,0.0,533416.0
1.0,-99.42057800292969,-31.59453010559082,9.279732704162598,-51.63310623168945,0.0,0.0,0.0,-0.0,0.5200182199478149,0.8330667018890381,0.10119602829217911,-10.529399871826172,2.5331599712371826,6.271860122680664,0.0,533417.0
1.0,-38.697357177734375,-38.389366149902344,52.61730194091797,20.661544799804688,0.0,0.0,0.0,-0.0,0.5200182199478149,0.8330667018890381,0.10119602829217911,-10.529399871826172,2.5331599712371826,6.271860122680664,0.0,533418.0
1.0,44.743247985839844,-24.353378295898438,74.99188232421875,70.4657974243164,0.0,0.0,0.0,-0.0,0.5200182199478149,0.8330667018890381,0.10119602829217911,-10.529399871826172,2.5331599712371826,6.271860122680664,0.0,533419.0
1.0,102.80355072021484,2.62508487701416,56.13427734375,61.35791015625,0.0,0.0,0.0,-0.0,0.5200182199478149,0.8330667018890381,0.10119602829217911,-10.529399871826172,2.5331599712371826,6.271860122680664,0.0,533420.0
1.0,113.29951477050781,28.333507537841797,12.616279602050781,19.63705062866211,0.0,0.0,0.0,-0.0,0.5200182199478149,0.8330667018890381,0.10119602829217911,-10.529399871826172,2.5331599712371826,6.271860122680664,0.0,533421.0
1.0,79.56299591064453,39.27178192138672,-25.35935401916504,-8.753270149230957,0.0,0.0,0.0,-0.0,0.5291734337806702,0.8521096110343933,0.10540744662284851,-9.82744026184082,3.7692201137542725,9.980039596557617,0.0,533422.0
1.0,20.18088722229004,29.860300064086914,-37.969932556152344,-7.884693145751953,0.0,0.0,0.0,-0.0,0.5291734337806702,0.8521096110343933,0.10540744662284851,-9.82744026184082,3.7692201137542725,9.980039596557617,0.0,533423.0
1.0,-36.83355712890625,5.404086589813232,-20.246875762939453,10.006030082702637,0.0,0.0,0.0,-0.0,0.5291734337806702,0.8521096110343933,0.10540744662284851,-9.82744026184082,3.7692201137542725,9.980039596557617,0.0,533424.0
1.0,-67.82172393798828,-21.29803466796875,14.184988975524902,28.204151153564453,0.0,0.0,0.0,-0.0,0.5291734337806702,0.8521096110343933,0.10540744662284851,-9.82744026184082,3.7692201137542725,9.980039596557617,0.0,533425.0
1.0,-66.9387435913086,-36.66768264770508,36.68159484863281,32.96656036376953,0.0,0.0,0.0,-0.0,0.5291734337806702,0.8521096110343933,0.10540744662284851,-9.82744026184082,3.7692201137542725,9.980039596557617,0.0,533426.0
1.0,-43.36530685424805,-32.89533233642578,27.05770492553711,15.124309539794922,0.0,0.0,0.0,-0.0,0.5291734337806702,0.8521096110343933,0.10540744662284851,-9.82744026184082,3.7692201137542725,9.980039596557617,0.0,533427.0
1.0,-9.355364799499512,-11.653371810913086,-7.4569549560546875,-20.867158889770508,0.0,0.0,0.0,-0.0,0.5291734337806702,0.8521096110343933,0.10540744662284851,-9.82744026184082,3.7692201137542725,9.980039596557617,0.0,533428.0
1.0,21.959177017211914,16.11709213256836,-42.3348274230957,-54.92363739013672,0.0,0.0,0.0,-0.0,0.5291734337806702,0.8521096110343933,0.10540744662284851,-9.82744026184082,3.7692201137542725,9.980039596557617,0.0,533429.0
1.0,34.521156311035156,34.983036041259766,-58.39502716064453,-64.57938385009766,0.0,0.0,0.0,-0.0,0.5291734337806702,0.8521096110343933,0.10540744662284851,-9.82744026184082,3.7692201137542725,9.980039596557617,0.0,533430.0
1.0,17.347225189208984,33.9098014831543,-53.195281982421875,-46.837989807128906,0.0,0.0,0.0,-0.0,0.5291734337806702,0.8521096110343933,0.10540744662284851,-9.82744026184082,3.7692201137542725,9.980039596557617,0.0,533431.0
1.0,-22.252595901489258,13.410053253173828,-33.27996063232422,-20.54743766784668,0.0,0.0,0.0,-0.0,0.5241075158119202,0.8365457057952881,0.10931368172168732,-9.613800048828125,3.555579900741577,5.691979885101318,0.0,533432.0
1.0,-54.6978874206543,-14.836651802062988,-0.783349871635437,2.349348545074463,0.0,0.0,0.0,-0.0,0.5241075158119202,0.8365457057952881,0.10931368172168732,-9.613800048828125,3.555579900741577,5.691979885101318,0.0,533433.0
1.0,-48.57089614868164,-34.771305084228516,40.219356536865234,27.856937408447266,0.0,0.0,0.0,-0.0,0.5241075158119202,0.8365457057952881,0.10931368172168732,-9.613800048828125,3.555579900741577,5.691979885101318,0.0,533434.0
1.0,-2.135784387588501,-35.05035400390625,70.04073333740234,52.919349670410156,0.0,0.0,0.0,-0.0,0.5241075158119202,0.8365457057952881,0.10931368172168732,-9.613800048828125,3.555579900741577,5.691979885101318,0.0,533435.0
1.0,54.1767463684082,-15.53554630279541,66.14996337890625,58.38439178466797,0.0,0.0,0.0,-0.0,0.5241075158119202,0.8365457057952881,0.10931368172168732,-9.613800048828125,3.555579900741577,5.691979885101318,0.0,533436.0
1.0,89.56415557861328,13.208268165588379,33.27268981933594,40.30948257446289,0.0,0.0,0.0,-0.0,0.5241075158119202,0.8365457057952881,0.10931368172168732,-9.613800048828125,3.555579900741577,5.691979885101318,0.0,533437.0
1.0,94.3148193359375,35.98826217651367,3.6593716144561768,20.0863094329834,0.0,0.0,0.0,-0.0,0.5241075158119202,0.8365457057952881,0.10931368172168732,-9.613800048828125,3.555579900741577,5.691979885101318,0.0,533438.0
1.0,65.85392761230469,40.35634231567383,-5.5351176261901855,11.09831428527832,0.0,0.0,0.0,-0.0,0.5241075158119202,0.8365457057952881,0.10931368172168732,-9.613800048828125,3.555579900741577,5.691979885101318,0.0,533439.0
1.0,2.23976993560791,23.011005401611328,-12.031868934631348,-1.0145995616912842,0.0,0.0,0.0,-0.0,0.5241075158119202,0.8365457057952881,0.10931368172168732,-9.613800048828125,3.555579900741577,5.691979885101318,0.0,533440.0
1.0,-77.59838104248047,-7.753891944885254,-32.22136306762695,-32.128055572509766,0.0,0.0,0.0,-0.0,0.5241075158119202,0.8365457057952881,0.10931368172168732,-9.613800048828125,3.555579900741577,5.691979885101318,0.0,533441.0
1.0,-133.66082763671875,-35.85952377319336,-54.88422393798828,-70.5671157836914,0.0,0.0,0.0,-0.0,0.5216661691665649,0.8028544187545776,0.11309785395860672,-5.875100135803223,1.6785999536514282,-12.650540351867676,0.0,533442.0
1.0,-130.11514282226562,-45.715084075927734,-55.280029296875,-81.67704010009766,0.0,0.0,0.0,-0.0,0.5216661691665649,0.8028544187545776,0.11309785395860672,-5.875100135803223,1.6785999536514282,-12.650540351867676,0.0,533443.0
1.0,-61.67925262451172,-31.201881408691406,-24.663461685180664,-47.42177200317383,0.0,0.0,0.0,-0.0,0.5216661691665649,0.8028544187545776,0.11309785395860672,-5.875100135803223,1.6785999536514282,-12.650540351867676,0.0,533444.0
1.0,32.72429656982422,-0.1141497939825058,12.23586368560791,3.6484110355377197,0.0,0.0,0.0,-0.0,0.5216661691665649,0.8028544187545776,0.11309785395860672,-5.875100135803223,1.6785999536514282,-12.650540351867676,0.0,533445.0
1.0,97.50675964355469,30.18244743347168,25.158906936645508,32.11064910888672,0.0,0.0,0.0,-0.0,0.5216661691665649,0.8028544187545776,0.11309785395860672,-5.875100135803223,1.6785999536514282,-12.650540351867676,0.0,533446.0
1.0,106.15145111083984,43.38895034790039,15.920018196105957,33.940948486328125,0.0,0.0,0.0,-0.0,0.5216661691665649,0.8028544187545776,0.11309785395860672,-5.875100135803223,1.6785999536514282,-12.650540351867676,0.0,533447.0
1.0,69.320068359375,33.581687927246094,7.79102087020874,28.841867446899414,0.0,0.0,0.0,-0.0,0.5216661691665649,0.8028544187545776,0.11309785395860672,-5.875100135803223,1.6785999536514282,-12.650540351867676,0.0,533448.0
1.0,12.355476379394531,7.151706218719482,14.091588973999023,30.66070556640625,0.0,0.0,0.0,-0.0,0.5216661691665649,0.8028544187545776,0.11309785395860672,-5.875100135803223,1.6785999536514282,-12.650540351867676,0.0,533449.0
1.0,-39.997867584228516,-21.822099685668945,28.238365173339844,37.10111999511719,0.0,0.0,-0.0,-0.0,0.5216661691665649,0.8028544187545776,0.11309785395860672,-5.875100135803223,1.6785999536514282,-12.650540351867676,0.0,533450.0
1.0,-64.46952819824219,-38.32471466064453,35.872745513916016,38.461360931396484,0.0,0.0,-0.0,-0.0,0.5216661691665649,0.8028544187545776,0.11309785395860672,-5.875100135803223,1.6785999536514282,-12.650540351867676,0.0,533451.0
1.0,-47.08668518066406,-33.66582107543945,28.878490447998047,33.12736511230469,0.0,0.0,-0.0,-0.0,0.5236192941665649,0.8079202771186829,0.12286345660686493,6.134520053863525,0.9919000267982483,-11.23136043548584,0.0,533452.0
1.0,0.1961704045534134,-10.666911125183105,7.653510093688965,20.448196411132812,0.0,0.0,-0.0,-0.0,0.5236192941665649,0.8079202771186829,0.12286345660686493,6.134520053863525,0.9919000267982483,-11.23136043548584,0.0,533453.0
1.0,42.76734924316406,17.66147804260254,-20.585508346557617,-11.080554008483887,0.0,0.0,-0.0,-0.0,0.5236192941665649,0.8079202771186829,0.12286345660686493,6.134520053863525,0.9919000267982483,-11.23136043548584,0.0,533454.0
1.0,49.926185607910156,35.63241958618164,-43.94324493408203,-60.545562744140625,0.0,0.0,-0.0,-0.0,0.5236192941665649,0.8079202771186829,0.12286345660686493,6.134520053863525,0.9919000267982483,-11.23136043548584,0.0,533455.0
1.0,17.287073135375977,33.73543167114258,-52.273475646972656,-95.36014556884766,0.0,0.0,-0.0,-0.0,0.5236192941665649,0.8079202771186829,0.12286345660686493,6.134520053863525,0.9919000267982483,-11.23136043548584,0.0,533456.0
1.0,-32.257144927978516,13.374703407287598,-41.41912841796875,-85.15384674072266,0.0,0.0,-0.0,-0.0,0.5236192941665649,0.8079202771186829,0.12286345660686493,6.134520053863525,0.9919000267982483,-11.23136043548584,0.0,533457.0
1.0,-64.77359008789062,-14.412456512451172,-11.81120491027832,-35.766483306884766,0.0,0.0,-0.0,-0.0,0.5236192941665649,0.8079202771186829,0.12286345660686493,6.134520053863525,0.9919000267982483,-11.23136043548584,0.0,533458.0
1.0,-57.4501838684082,-34.46238327026367,27.749774932861328,26.6640567779541,0.0,0.0,-0.0,-0.0,0.5236192941665649,0.8079202771186829,0.12286345660686493,6.134520053863525,0.9919000267982483,-11.23136043548584,0.0,533459.0
1.0,-12.76098918914795,-35.40342330932617,57.72051239013672,79.06706237792969,0.0,0.0,-0.0,-0.0,0.5236192941665649,0.8079202771186829,0.12286345660686493,6.134520053863525,0.9919000267982483,-11.23136043548584,0.0,533460.0
1.0,46.032501220703125,-16.360557556152344,62.3829231262207,102.79795837402344,0.0,0.0,-0.0,-0.0,0.5236192941665649,0.8079202771186829,0.12286345660686493,6.134520053863525,0.9919000267982483,-11.23136043548584,0.0,533461.0
1.0,86.9472885131836,12.096792221069336,40.1777229309082,83.89508056640625,0.0,0.0,-0.0,-0.0,0.5170885324478149,0.8280618190765381,0.13629116117954254,19.39546012878418,-4.7153401374816895,-7.828380107879639,0.0,533462.0
1.0,82.5084228515625,33.76227569580078,-1.458928108215332,27.940353393554688,0.0,0.0,-0.0,-0.0,0.5170885324478149,0.8280618190765381,0.13629116117954254,19.39546012878418,-4.7153401374816895,-7.828380107879639,0.0,533463.0
1.0,28.604991912841797,36.556884765625,-47.590946197509766,-33.581024169921875,0.0,0.0,-0.0,-0.0,0.5170885324478149,0.8280618190765381,0.13629116117954254,19.39546012878418,-4.7153401374816895,-7.828380107879639,0.0,533464.0
1.0,-48.00141906738281,19.45914649963379,-76.99234771728516,-75.40449523925781,0.0,0.0,-0.0,-0.0,0.5170885324478149,0.8280618190765381,0.13629116117954254,19.39546012878418,-4.7153401374816895,-7.828380107879639,0.0,533465.0
1.0,-106.89533996582031,-8.358895301818848,-74.13801574707031,-98.57212829589844,0.0,0.0,-0.0,-0.0,0.5170885324478149,0.8280618190765381,0.13629116117954254,19.39546012878418,-4.7153401374816895,-7.828380107879639,0.0,533466.0
1.0,-117.57771301269531,-32.752586364746094,-40.06479263305664,-97.83787536621094,0.0,0.0,-0.0,-0.0,0.5170885324478149,0.8280618190765381,0.13629116117954254,19.39546012878418,-4.7153401374816895,-7.828380107879639,0.0,533467.0
1.0,-70.0969467163086,-40.5150260925293,11.254240989685059,-50.74666976928711,0.0,0.0,-0.0,-0.0,0.5170885324478149,0.8280618190765381,0.13629116117954254,19.39546012878418,-4.7153401374816895,-7.828380107879639,0.0,533468.0
1.0,19.343158721923828,-26.311534881591797,60.129329681396484,37.15289306640625,0.0,0.0,-0.0,-0.0,0.5170885324478149,0.8280618190765381,0.13629116117954254,19.39546012878418,-4.7153401374816895,-7.828380107879639,0.0,533469.0
1.0,106.40204620361328,2.852801561355591,83.11436462402344,109.68653106689453,0.0,0.0,-0.0,-0.0,0.5170885324478149,0.8280618190765381,0.13629116117954254,19.39546012878418,-4.7153401374816895,-7.828380107879639,0.0,533470.0
1.0,141.1819305419922,30.875102996826172,66.29092407226562,112.60859680175781,0.0,0.0,-0.0,-0.0,0.5170885324478149,0.8280618190765381,0.13629116117954254,19.39546012878418,-4.7153401374816895,-7.828380107879639,0.0,533471.0
1.0,105.82435607910156,42.3648681640625,23.0275821685791,55.73149108886719,0.0,0.0,-0.0,-0.0,0.5134874582290649,0.8630349040031433,0.13830530643463135,6.195559978485107,-4.8069000244140625,-3.2961599826812744,0.0,533472.0
1.0,24.03322410583496,31.57375717163086,-18.586530685424805,-8.284255981445312,0.0,0.0,-0.0,-0.0,0.5134874582290649,0.8630349040031433,0.13830530643463135,6.195559978485107,-4.8069000244140625,-3.2961599826812744,0.0,533473.0
1.0,-62.77189254760742,4.558286190032959,-42.49208068847656,-45.14451217651367,0.0,0.0,-0.0,-0.0,0.5134874582290649,0.8630349040031433,0.13830530643463135,6.195559978485107,-4.8069000244140625,-3.2961599826812744,0.0,533474.0
1.0,-118.18495178222656,-24.494367599487305,-46.59353256225586,-51.13716125488281,0.0,0.0,-0.0,-0.0,0.5134874582290649,0.8630349040031433,0.13830530643463135,6.195559978485107,-4.8069000244140625,-3.2961599826812744,0.0,533475.0
1.0,-120.43360900878906,-40.297523498535156,-34.588340759277344,-36.832733154296875,0.0,0.0,-0.0,-0.0,0.5134874582290649,0.8630349040031433,0.13830530643463135,6.195559978485107,-4.8069000244140625,-3.2961599826812744,0.0,533476.0
1.0,-68.65218353271484,-34.644134521484375,-14.7074613571167,-16.998727798461914,0.0,0.0,-0.0,0.0,0.5134874582290649,0.8630349040031433,0.13830530643463135,6.195559978485107,-4.8069000244140625,-3.2961599826812744,0.0,533477.0
1.0,13.112049102783203,-10.86387825012207,2.7978835105895996,-1.6382899284362793,0.0,0.0,-0.0,0.0,0.5134874582290649,0.8630349040031433,0.13830530643463135,6.195559978485107,-4.8069000244140625,-3.2961599826812744,0.0,533478.0
1.0,85.04878234863281,18.254993438720703,12.256187438964844,8.911355972290039,0.0,0.0,-0.0,0.0,0.5134874582290649,0.8630349040031433,0.13830530643463135,6.195559978485107,-4.8069000244140625,-3.2961599826812744,0.0,533479.0
1.0,115.54635620117188,37.23914337158203,17.58025360107422,21.193958282470703,0.0,0.0,-0.0,0.0,0.5134874582290649,0.8630349040031433,0.13830530643463135,6.195559978485107,-4.8069000244140625,-3.2961599826812744,0.0,533480.0
1.0,97.09403991699219,36.16487503051758,25.738290786743164,36.943111419677734,0.0,0.0,-0.0,0.0,0.5134874582290649,0.8630349040031433,0.13830530643463135,6.195559978485107,-4.8069000244140625,-3.2961599826812744,0.0,533481.0
1.0,42.49312973022461,15.892287254333496,36.72426986694336,43.741615295410156,0.0,0.0,-0.0,0.0,0.5144640207290649,0.8724953532218933,0.13024869561195374,-6.516019821166992,-2.243220090866089,-4.623779773712158,0.0,533482.0
1.0,-23.676166534423828,-12.79169750213623,42.51450729370117,27.69235610961914,0.0,0.0,-0.0,0.0,0.5144640207290649,0.8724953532218933,0.13024869561195374,-6.516019821166992,-2.243220090866089,-4.623779773712158,0.0,533483.0
1.0,-74.479736328125,-34.728797912597656,30.42713737487793,-8.229815483093262,0.0,0.0,-0.0,0.0,0.5144640207290649,0.8724953532218933,0.13024869561195374,-6.516019821166992,-2.243220090866089,-4.623779773712158,0.0,533484.0
1.0,-94.62643432617188,-38.16613006591797,-8.08782958984375,-49.192138671875,0.0,0.0,-0.0,0.0,0.5144640207290649,0.8724953532218933,0.13024869561195374,-6.516019821166992,-2.243220090866089,-4.623779773712158,0.0,533485.0
1.0,-84.22378540039062,-21.228296279907227,-62.57683181762695,-79.376708984375,0.0,0.0,-0.0,0.0,0.5144640207290649,0.8724953532218933,0.13024869561195374,-6.516019821166992,-2.243220090866089,-4.623779773712158,0.0,533486.0
1.0,-49.87910079956055,7.070915222167969,-102.21903228759766,-81.20976257324219,0.0,0.0,-0.0,0.0,0.5144640207290649,0.8724953532218933,0.13024869561195374,-6.516019821166992,-2.243220090866089,-4.623779773712158,0.0,533487.0
1.0,-1.9880614280700684,31.506086349487305,-97.56767272949219,-45.72566223144531,0.0,0.0,-0.0,0.0,0.5144640207290649,0.8724953532218933,0.13024869561195374,-6.516019821166992,-2.243220090866089,-4.623779773712158,0.0,533488.0
1.0,42.31439971923828,38.845428466796875,-44.57595443725586,12.189979553222656,0.0,0.0,-0.0,0.0,0.5144640207290649,0.8724953532218933,0.13024869561195374,-6.516019821166992,-2.243220090866089,-4.623779773712158,0.0,533489.0
1.0,64.32772827148438,25.37885284423828,31.040647506713867,64.23815155029297,0.0,0.0,-0.0,0.0,0.5144640207290649,0.8724953532218933,0.13024869561195374,-6.516019821166992,-2.243220090866089,-4.623779773712158,0.0,533490.0
1.0,56.74296188354492,-1.3656073808670044,92.50335693359375,92.56915283203125,0.0,0.0,-0.0,0.0,0.5144640207290649,0.8724953532218933,0.13024869561195374,-6.516019821166992,-2.243220090866089,-4.623779773712158,0.0,533491.0
1.0,30.628568649291992,-26.97776222229004,115.20942687988281,92.59907531738281,0.0,0.0,-0.0,0.0,0.5131822824478149,0.8525368571281433,0.11682099103927612,-1.5260000228881836,-0.6561800241470337,-4.318580150604248,0.0,533492.0
1.0,7.190329551696777,-37.74435043334961,95.08380126953125,59.24367904663086,0.0,0.0,-0.0,0.0,0.5131822824478149,0.8525368571281433,0.11682099103927612,-1.5260000228881836,-0.6561800241470337,-4.318580150604248,0.0,533493.0
1.0,0.4332547187805176,-27.86525535583496,44.03404235839844,-3.3919837474823,0.0,0.0,-0.0,0.0,0.5131822824478149,0.8525368571281433,0.11682099103927612,-1.5260000228881836,-0.6561800241470337,-4.318580150604248,0.0,533494.0
1.0,4.868474960327148,-2.5200252532958984,-19.465686798095703,-64.79977416992188,0.0,0.0,-0.0,0.0,0.5131822824478149,0.8525368571281433,0.11682099103927612,-1.5260000228881836,-0.6561800241470337,-4.318580150604248,0.0,533495.0
1.0,3.1873128414154053,24.295320510864258,-75.54833221435547,-89.99796295166016,0.0,0.0,-0.0,0.0,0.5131822824478149,0.8525368571281433,0.11682099103927612,-1.5260000228881836,-0.6561800241470337,-4.318580150604248,0.0,533496.0
1.0,-11.044705390930176,37.19841384887695,-101.82331848144531,-69.66081237792969,0.0,0.0,-0.0,0.0,0.5131822824478149,0.8525368571281433,0.11682099103927612,-1.5260000228881836,-0.6561800241470337,-4.318580150604248,0.0,533497.0
1.0,-26.271526336669922,29.000015258789062,-81.44731903076172,-19.35245132446289,0.0,0.0,-0.0,0.0,0.5131822824478149,0.8525368571281433,0.11682099103927612,-1.5260000228881836,-0.6561800241470337,-4.318580150604248,0.0,533498.0
1.0,-31.305877685546875,4.614919662475586,-22.30121421813965,32.51298141479492,0.0,0.0,-0.0,0.0,0.5131822824478149,0.8525368571281433,0.11682099103927612,-1.5260000228881836,-0.6561800241470337,-4.318580150604248,0.0,533499.0
1.0,-29.68500518798828,-22.85670280456543,38.925296783447266,55.84790802001953,0.0,0.0,-0.0,0.0,0.5131822824478149,0.8525368571281433,0.11682099103927612,-1.5260000228881836,-0.6561800241470337,-4.318580150604248,0.0,533500.0
1.0,-28.860353469848633,-38.904998779296875,63.742149353027344,38.4074592590332,0.0,0.0,-0.0,0.0,0.5131822824478149,0.8525368571281433,0.11682099103927612,-1.5260000228881836,-0.6561800241470337,-4.318580150604248,0.0,533501.0
1.0,-22.644716262817383,-34.41707992553711,45.10340118408203,-1.5493322610855103,0.0,0.0,-0.0,0.0,0.5122667551040649,0.8424661159515381,0.11309785395860672,12.26904010772705,-2.487380027770996,-4.135459899902344,0.0,533502.0
1.0,2.211186408996582,-10.766518592834473,7.8955488204956055,-31.31659507751465,0.0,0.0,-0.0,0.0,0.5122667551040649,0.8424661159515381,0.11309785395860672,12.26904010772705,-2.487380027770996,-4.135459899902344,0.0,533503.0
1.0,42.3898811340332,20.05522346496582,-18.523067474365234,-31.034709930419922,0.0,0.0,-0.0,0.0,0.5122667551040649,0.8424661159515381,0.11309785395860672,12.26904010772705,-2.487380027770996,-4.135459899902344,0.0,533504.0
1.0,75.42239379882812,41.40409469604492,-18.52584457397461,-4.891577243804932,0.0,0.0,-0.0,0.0,0.5122667551040649,0.8424661159515381,0.11309785395860672,12.26904010772705,-2.487380027770996,-4.135459899902344,0.0,533505.0
1.0,78.82994842529297,41.54667663574219,4.994499206542969,26.0018253326416,0.0,0.0,-0.0,0.0,0.5122667551040649,0.8424661159515381,0.11309785395860672,12.26904010772705,-2.487380027770996,-4.135459899902344,0.0,533506.0
1.0,42.53507614135742,20.327049255371094,29.098411560058594,40.52404022216797,0.0,0.0,-0.0,0.0,0.5122667551040649,0.8424661159515381,0.11309785395860672,12.26904010772705,-2.487380027770996,-4.135459899902344,0.0,533507.0
1.0,-23.632360458374023,-11.38817310333252,27.71337890625,31.624595642089844,0.0,0.0,-0.0,0.0,0.5122667551040649,0.8424661159515381,0.11309785395860672,12.26904010772705,-2.487380027770996,-4.135459899902344,0.0,533508.0
1.0,-88.60360717773438,-37.381988525390625,-3.136575698852539,4.365349769592285,0.0,0.0,-0.0,0.0,0.5122667551040649,0.8424661159515381,0.11309785395860672,12.26904010772705,-2.487380027770996,-4.135459899902344,0.0,533509.0
1.0,-118.87874603271484,-44.25000762939453,-45.28632354736328,-34.66973876953125,0.0,0.0,-0.0,0.0,0.5122667551040649,0.8424661159515381,0.11309785395860672,12.26904010772705,-2.487380027770996,-4.135459899902344,0.0,533510.0
1.0,-97.62776947021484,-28.46082305908203,-73.68932342529297,-72.18193817138672,0.0,0.0,-0.0,0.0,0.5122667551040649,0.8424661159515381,0.11309785395860672,12.26904010772705,-2.487380027770996,-4.135459899902344,0.0,533511.0
1.0,-30.53188705444336,1.7721116542816162,-67.68737030029297,-80.80331420898438,0.0,0.0,-0.0,0.0,0.5114732980728149,0.8521706461906433,0.11254853755235672,15.153180122375488,-3.5861001014709473,-0.4425399899482727,0.0,533512.0
1.0,55.12559509277344,30.46045684814453,-21.601490020751953,-39.096797943115234,0.0,0.0,-0.0,0.0,0.5114732980728149,0.8521706461906433,0.11254853755235672,15.153180122375488,-3.5861001014709473,-0.4425399899482727,0.0,533513.0
1.0,119.4271240234375,42.551334381103516,46.26811218261719,38.63227081298828,0.0,0.0,-0.0,0.0,0.5114732980728149,0.8521706461906433,0.11254853755235672,15.153180122375488,-3.5861001014709473,-0.4425399899482727,0.0,533514.0
1.0,126.26355743408203,32.2310905456543,97.35987091064453,100.71918487548828,0.0,0.0,-0.0,0.0,0.5114732980728149,0.8521706461906433,0.11254853755235672,15.153180122375488,-3.5861001014709473,-0.4425399899482727,0.0,533515.0
1.0,70.76963806152344,5.420223712921143,102.92445373535156,104.03086853027344,0.0,0.0,-0.0,0.0,0.5114732980728149,0.8521706461906433,0.11254853755235672,15.153180122375488,-3.5861001014709473,-0.4425399899482727,0.0,533516.0
1.0,-10.374897956848145,-23.305212020874023,66.9327163696289,58.04335021972656,0.0,0.0,-0.0,0.0,0.5114732980728149,0.8521706461906433,0.11254853755235672,15.153180122375488,-3.5861001014709473,-0.4425399899482727,0.0,533517.0
1.0,-73.44219207763672,-38.44548797607422,6.781767845153809,-1.3120092153549194,0.0,0.0,-0.0,0.0,0.5114732980728149,0.8521706461906433,0.11254853755235672,15.153180122375488,-3.5861001014709473,-0.4425399899482727,0.0,533518.0
1.0,-95.52928161621094,-32.36528778076172,-59.76103591918945,-53.423805236816406,0.0,0.0,-0.0,0.0,0.5114732980728149,0.8521706461906433,0.11254853755235672,15.153180122375488,-3.5861001014709473,-0.4425399899482727,0.0,533519.0
1.0,-69.77315521240234,-8.864151954650879,-102.78793334960938,-81.66041564941406,0.0,0.0,-0.0,0.0,0.5114732980728149,0.8521706461906433,0.11254853755235672,15.153180122375488,-3.5861001014709473,-0.4425399899482727,0.0,533520.0
1.0,-10.266329765319824,18.88629913330078,-97.03927612304688,-72.08230590820312,0.0,0.0,-0.0,0.0,0.5114732980728149,0.8521706461906433,0.11254853755235672,15.153180122375488,-3.5861001014709473,-0.4425399899482727,0.0,533521.0
1.0,43.341434478759766,34.90816116333008,-51.523101806640625,-38.35676956176758,0.0,0.0,-0.0,0.0,0.5145250558853149,0.8685891032218933,0.11248750239610672,2.3195199966430664,-2.746799945831299,-0.8392999768257141,0.0,533522.0
1.0,56.94850540161133,30.310781478881836,4.782986640930176,-3.3749005794525146,0.0,0.0,-0.0,0.0,0.5145250558853149,0.8685891032218933,0.11248750239610672,2.3195199966430664,-2.746799945831299,-0.8392999768257141,0.0,533523.0
1.0,32.009525299072266,8.710738182067871,52.07393264770508,25.97940444946289,0.0,0.0,-0.0,0.0,0.5145250558853149,0.8685891032218933,0.11248750239610672,2.3195199966430664,-2.746799945831299,-0.8392999768257141,0.0,533524.0
1.0,-5.451070785522461,-17.263885498046875,79.42631530761719,46.31022262573242,0.0,0.0,-0.0,0.0,0.5145250558853149,0.8685891032218933,0.11248750239610672,2.3195199966430664,-2.746799945831299,-0.8392999768257141,0.0,533525.0
1.0,-30.1885986328125,-33.37134552001953,77.31748962402344,52.551170349121094,0.0,0.0,-0.0,0.0,0.5145250558853149,0.8685891032218933,0.11248750239610672,2.3195199966430664,-2.746799945831299,-0.8392999768257141,0.0,533526.0
1.0,-29.577070236206055,-30.884370803833008,44.160133361816406,44.805877685546875,0.0,0.0,-0.0,0.0,0.5145250558853149,0.8685891032218933,0.11248750239610672,2.3195199966430664,-2.746799945831299,-0.8392999768257141,0.0,533527.0
1.0,-7.3657379150390625,-11.257172584533691,-7.183439254760742,23.603282928466797,0.0,0.0,-0.0,0.0,0.5145250558853149,0.8685891032218933,0.11248750239610672,2.3195199966430664,-2.746799945831299,-0.8392999768257141,0.0,533528.0
1.0,19.839033126831055,14.564671516418457,-53.79804229736328,-9.561116218566895,0.0,0.0,-0.0,0.0,0.5145250558853149,0.8685891032218933,0.11248750239610672,2.3195199966430664,-2.746799945831299,-0.8392999768257141,0.0,533529.0
1.0,35.404727935791016,32.271400451660156,-72.2667007446289,-40.08820343017578,0.0,0.0,0.0,0.0,0.5145250558853149,0.8685891032218933,0.11248750239610672,2.3195199966430664,-2.746799945831299,-0.8392999768257141,0.0,533530.0
1.0,32.15556335449219,32.35102462768555,-50.682411193847656,-44.858116149902344,0.0,0.0,0.0,0.0,0.5145250558853149,0.8685891032218933,0.11248750239610672,2.3195199966430664,-2.746799945831299,-0.8392999768257141,0.0,533531.0
1.0,12.546377182006836,14.99302864074707,-0.2843211591243744,-17.838626861572266,0.0,0.0,0.0,0.0,0.5145860910415649,0.8721901774406433,0.11450166255235672,-9.033920288085938,0.4425399899482727,-0.9156000018119812,0.0,533532.0
1.0,-14.372467994689941,-10.716609954833984,47.821353912353516,19.834186553955078,0.0,0.0,0.0,0.0,0.5145860910415649,0.8721901774406433,0.11450166255235672,-9.033920288085938,0.4425399899482727,-0.9156000018119812,0.0,533533.0
1.0,-36.208675384521484,-31.011629104614258,64.14900970458984,39.31183624267578,0.0,0.0,0.0,0.0,0.5145860910415649,0.8721901774406433,0.11450166255235672,-9.033920288085938,0.4425399899482727,-0.9156000018119812,0.0,533534.0
1.0,-41.732139587402344,-34.172203063964844,40.40414810180664,25.4771785736084,0.0,0.0,0.0,0.0,0.5145860910415649,0.8721901774406433,0.11450166255235672,-9.033920288085938,0.4425399899482727,-0.9156000018119812,0.0,533535.0
1.0,-26.02439308166504,-17.69971466064453,-7.003601551055908,-12.169516563415527,0.0,0.0,0.0,0.0,0.5145860910415649,0.8721901774406433,0.11450166255235672,-9.033920288085938,0.4425399899482727,-0.9156000018119812,0.0,533536.0
1.0,5.317089557647705,9.677906036376953,-47.254215240478516,-41.99554443359375,0.0,0.0,0.0,0.0,0.5145860910415649,0.8721901774406433,0.11450166255235672,-9.033920288085938,0.4425399899482727,-0.9156000018119812,0.0,533537.0
1.0,36.078819274902344,32.589603424072266,-56.50845718383789,-39.53890609741211,0.0,0.0,0.0,0.0,0.5145860910415649,0.8721901774406433,0.11450166255235672,-9.033920288085938,0.4425399899482727,-0.9156000018119812,0.0,533538.0
1.0,46.4290657043457,37.62029266357422,-35.83618927001953,-13.844025611877441,0.0,0.0,0.0,0.0,0.5145860910415649,0.8721901774406433,0.11450166255235672,-9.033920288085938,0.4425399899482727,-0.9156000018119812,0.0,533539.0
1.0,25.26923179626465,21.38581085205078,-4.603871822357178,7.465325832366943,0.0,0.0,0.0,0.0,0.5145860910415649,0.8721901774406433,0.11450166255235672,-9.033920288085938,0.4425399899482727,-0.9156000018119812,0.0,533540.0
1.0,-17.993621826171875,-7.526243209838867,20.369258880615234,9.831816673278809,0.0,0.0,0.0,0.0,0.5145860910415649,0.8721901774406433,0.11450166255235672,-9.033920288085938,0.4425399899482727,-0.9156000018119812,0.0,533541.0
1.0,-57.54927062988281,-33.621726989746094,30.250835418701172,-3.5643913745880127,0.0,0.0,0.0,0.0,0.5189195871353149,0.8476541042327881,0.10937471687793732,-8.103059768676758,3.662400007247925,-1.4802199602127075,0.0,533542.0
1.0,-68.22483825683594,-42.736209869384766,22.04749870300293,-20.842506408691406,0.0,0.0,0.0,0.0,0.5189195871353149,0.8476541042327881,0.10937471687793732,-8.103059768676758,3.662400007247925,-1.4802199602127075,0.0,533543.0
1.0,-38.45967483520508,-29.221559524536133,4.445009708404541,-20.34432601928711,0.0,0.0,0.0,0.0,0.5189195871353149,0.8476541042327881,0.10937471687793732,-8.103059768676758,3.662400007247925,-1.4802199602127075,0.0,533544.0
1.0,19.834487915039062,0.7572692632675171,-7.746096611022949,12.0626859664917,0.0,0.0,0.0,0.0,0.5189195871353149,0.8476541042327881,0.10937471687793732,-8.103059768676758,3.662400007247925,-1.4802199602127075,0.0,533545.0
1.0,73.53156280517578,31.34929656982422,-8.190621376037598,55.9256706237793,0.0,0.0,0.0,0.0,0.5189195871353149,0.8476541042327881,0.10937471687793732,-8.103059768676758,3.662400007247925,-1.4802199602127075,0.0,533546.0
1.0,88.33269500732422,45.190067291259766,-2.3641984462738037,69.90802001953125,0.0,0.0,0.0,0.0,0.5189195871353149,0.8476541042327881,0.10937471687793732,-8.103059768676758,3.662400007247925,-1.4802199602127075,0.0,533547.0
1.0,51.598052978515625,34.26691436767578,0.09211811423301697,38.016807556152344,0.0,0.0,0.0,0.0,0.5189195871353149,0.8476541042327881,0.10937471687793732,-8.103059768676758,3.662400007247925,-1.4802199602127075,0.0,533548.0
1.0,-16.22099494934082,4.991420745849609,-3.704941511154175,-14.583592414855957,0.0,0.0,0.0,0.0,0.5189195871353149,0.8476541042327881,0.10937471687793732,-8.103059768676758,3.662400007247925,-1.4802199602127075,0.0,533549.0
1.0,-73.86583709716797,-26.373023986816406,-7.424793720245361,-53.37805938720703,0.0,0.0,0.0,0.0,0.5189195871353149,0.8476541042327881,0.10937471687793732,-8.103059768676758,3.662400007247925,-1.4802199602127075,0.0,533550.0
1.0,-88.47116088867188,-42.98649978637695,-5.010197639465332,-60.80092239379883,0.0,0.0,0.0,0.0,0.5189195871353149,0.8476541042327881,0.10937471687793732,-8.103059768676758,3.662400007247925,-1.4802199602127075,0.0,533551.0
1.0,-54.78495788574219,-36.2249641418457,1.708216905593872,-38.54981994628906,0.0,0.0,0.0,0.0,0.5280137658119202,0.8398416042327881,0.10443088412284851,4.028639793395996,5.92087984085083,-5.157879829406738,0.0,533552.0
1.0,7.87022590637207,-10.070897102355957,7.774583339691162,-2.0332868099212646,0.0,0.0,0.0,0.0,0.5280137658119202,0.8398416042327881,0.10443088412284851,4.028639793395996,5.92087984085083,-5.157879829406738,0.0,533553.0
1.0,68.81880950927734,21.491365432739258,13.107593536376953,30.1221923828125,0.0,0.0,0.0,0.0,0.5280137658119202,0.8398416042327881,0.10443088412284851,4.028639793395996,5.92087984085083,-5.157879829406738,0.0,533554.0
1.0,99.44488525390625,42.027713775634766,21.041948318481445,44.54888916015625,0.0,0.0,0.0,0.0,0.5280137658119202,0.8398416042327881,0.10443088412284851,4.028639793395996,5.92087984085083,-5.157879829406738,0.0,533555.0
1.0,84.590087890625,41.13759231567383,29.63428497314453,39.7838249206543,0.0,0.0,0.0,0.0,0.5280137658119202,0.8398416042327881,0.10443088412284851,4.028639793395996,5.92087984085083,-5.157879829406738,0.0,533556.0
1.0,29.780132293701172,19.59339141845703,30.686538696289062,27.12546730041504,0.0,0.0,0.0,0.0,0.5280137658119202,0.8398416042327881,0.10443088412284851,4.028639793395996,5.92087984085083,-5.157879829406738,0.0,533557.0
1.0,-40.425689697265625,-11.608360290527344,16.800735473632812,12.708174705505371,0.0,0.0,0.0,0.0,0.5280137658119202,0.8398416042327881,0.10443088412284851,4.028639793395996,5.92087984085083,-5.157879829406738,0.0,533558.0
1.0,-94.87673950195312,-36.76930236816406,-13.578202247619629,-11.047958374023438,0.0,0.0,0.0,-0.0,0.5280137658119202,0.8398416042327881,0.10443088412284851,4.028639793395996,5.92087984085083,-5.157879829406738,0.0,533559.0
1.0,-107.67062377929688,-43.00739669799805,-49.086158752441406,-40.73033142089844,0.0,0.0,0.0,-0.0,0.5280137658119202,0.8398416042327881,0.10443088412284851,4.028639793395996,5.92087984085083,-5.157879829406738,0.0,533560.0
1.0,-71.56873321533203,-27.297897338867188,-70.1999282836914,-56.688873291015625,0.0,0.0,0.0,-0.0,0.5280137658119202,0.8398416042327881,0.10443088412284851,4.028639793395996,5.92087984085083,-5.157879829406738,0.0,533561.0
1.0,-8.270508766174316,1.4155265092849731,-66.9367446899414,-51.19103240966797,0.0,0.0,0.0,-0.0,0.5269151329994202,0.8522316813468933,0.10491916537284851,6.058219909667969,5.539380073547363,-0.3815000057220459,0.0,533562.0
1.0,49.036380767822266,27.456193923950195,-38.70726776123047,-30.298965454101562,0.0,0.0,0.0,-0.0,0.5269151329994202,0.8522316813468933,0.10491916537284851,6.058219909667969,5.539380073547363,-0.3815000057220459,0.0,533563.0
1.0,81.0456771850586,37.6556282043457,11.503173828125,3.0164196491241455,0.0,0.0,0.0,-0.0,0.5269151329994202,0.8522316813468933,0.10491916537284851,6.058219909667969,5.539380073547363,-0.3815000057220459,0.0,533564.0
1.0,82.14127349853516,27.919219970703125,67.34751892089844,40.893043518066406,0.0,0.0,0.0,-0.0,0.5269151329994202,0.8522316813468933,0.10491916537284851,6.058219909667969,5.539380073547363,-0.3815000057220459,0.0,533565.0
1.0,51.62370300292969,3.7635762691497803,99.46183013916016,62.52739715576172,0.0,0.0,0.0,-0.0,0.5269151329994202,0.8522316813468933,0.10491916537284851,6.058219909667969,5.539380073547363,-0.3815000057220459,0.0,533566.0
1.0,-0.9379120469093323,-22.43739891052246,87.17393493652344,54.047454833984375,0.0,0.0,0.0,-0.0,0.5269151329994202,0.8522316813468933,0.10491916537284851,6.058219909667969,5.539380073547363,-0.3815000057220459,0.0,533567.0
1.0,-50.003204345703125,-36.43064880371094,35.482418060302734,24.61208724975586,0.0,0.0,0.0,-0.0,0.5269151329994202,0.8522316813468933,0.10491916537284851,6.058219909667969,5.539380073547363,-0.3815000057220459,0.0,533568.0
1.0,-66.06390380859375,-29.829296112060547,-28.105133056640625,-4.051390647888184,0.0,0.0,0.0,-0.0,0.5269151329994202,0.8522316813468933,0.10491916537284851,6.058219909667969,5.539380073547363,-0.3815000057220459,0.0,533569.0
1.0,-41.01231002807617,-5.9836297035217285,-73.57904052734375,-21.317800521850586,0.0,0.0,0.0,-0.0,0.5269151329994202,0.8522316813468933,0.10491916537284851,6.058219909667969,5.539380073547363,-0.3815000057220459,0.0,533570.0
1.0,-0.07506746053695679,21.221464157104492,-86.84349822998047,-35.255615234375,0.0,0.0,0.0,-0.0,0.5269151329994202,0.8522316813468933,0.10491916537284851,6.058219909667969,5.539380073547363,-0.3815000057220459,0.0,533571.0
1.0,22.8145751953125,35.83802032470703,-68.26575469970703,-46.43244934082031,0.0,0.0,0.0,-0.0,0.5170274972915649,0.8481423854827881,0.11267060786485672,3.0367400646209717,2.044840097427368,-3.189340114593506,0.0,533572.0
1.0,18.170883178710938,29.848581314086914,-26.10166358947754,-36.264347076416016,0.0,0.0,0.0,-0.0,0.5170274972915649,0.8481423854827881,0.11267060786485672,3.0367400646209717,2.044840097427368,-3.189340114593506,0.0,533573.0
1.0,2.2995967864990234,7.252032279968262,25.240285873413086,3.825192928314209,0.0,0.0,0.0,-0.0,0.5170274972915649,0.8481423854827881,0.11267060786485672,3.0367400646209717,2.044840097427368,-3.189340114593506,0.0,533574.0
1.0,-4.931200981140137,-19.008747100830078,68.5628662109375,51.47032928466797,0.0,0.0,0.0,-0.0,0.5170274972915649,0.8481423854827881,0.11267060786485672,3.0367400646209717,2.044840097427368,-3.189340114593506,0.0,533575.0
1.0,-0.02124689146876335,-34.450927734375,82.43280792236328,64.29765319824219,0.0,0.0,0.0,-0.0,0.5170274972915649,0.8481423854827881,0.11267060786485672,3.0367400646209717,2.044840097427368,-3.189340114593506,0.0,533576.0
1.0,6.488724231719971,-31.005239486694336,51.25444412231445,21.3019962310791,0.0,0.0,0.0,-0.0,0.5170274972915649,0.8481423854827881,0.11267060786485672,3.0367400646209717,2.044840097427368,-3.189340114593506,0.0,533577.0
1.0,9.87289810180664,-10.605255126953125,-9.753009796142578,-43.80970764160156,0.0,0.0,0.0,-0.0,0.5170274972915649,0.8481423854827881,0.11267060786485672,3.0367400646209717,2.044840097427368,-3.189340114593506,0.0,533578.0
1.0,13.043286323547363,16.24679946899414,-60.890625,-77.40837097167969,0.0,0.0,0.0,-0.0,0.5170274972915649,0.8481423854827881,0.11267060786485672,3.0367400646209717,2.044840097427368,-3.189340114593506,0.0,533579.0
1.0,13.73763370513916,35.22823715209961,-72.371826171875,-59.473609924316406,0.0,0.0,0.0,-0.0,0.5170274972915649,0.8481423854827881,0.11267060786485672,3.0367400646209717,2.044840097427368,-3.189340114593506,0.0,533580.0
1.0,9.721502304077148,35.99935531616211,-39.250972747802734,-3.210489511489868,0.0,0.0,0.0,-0.0,0.5170274972915649,0.8481423854827881,0.11267060786485672,3.0367400646209717,2.044840097427368,-3.189340114593506,0.0,533581.0
1.0,3.9448885917663574,18.228836059570312,19.979095458984375,64.5956802368164,0.0,0.0,0.0,-0.0,0.5110460519790649,0.8500954508781433,0.12603726983070374,-6.973820209503174,0.488319993019104,-8.225139617919922,0.0,533582.0
1.0,-8.045631408691406,-9.059769630432129,66.58338928222656,105.61557006835938,0.0,0.0,0.0,-0.0,0.5110460519790649,0.8500954508781433,0.12603726983070374,-6.973820209503174,0.488319993019104,-8.225139617919922,0.0,533583.0
1.0,-32.94435501098633,-32.021705627441406,64.20317077636719,84.50211334228516,0.0,0.0,0.0,-0.0,0.5110460519790649,0.8500954508781433,0.12603726983070374,-6.973820209503174,0.488319993019104,-8.225139617919922,0.0,533584.0
1.0,-57.9485969543457,-38.18520736694336,12.488227844238281,4.963536262512207,0.0,0.0,0.0,-0.0,0.5110460519790649,0.8500954508781433,0.12603726983070374,-6.973820209503174,0.488319993019104,-8.225139617919922,0.0,533585.0
1.0,-56.78242492675781,-23.647825241088867,-50.59938049316406,-84.23400115966797,0.0,0.0,0.0,-0.0,0.5110460519790649,0.8500954508781433,0.12603726983070374,-6.973820209503174,0.488319993019104,-8.225139617919922,0.0,533586.0
1.0,-18.221498489379883,3.832664966583252,-82.06194305419922,-126.75131225585938,0.0,0.0,0.0,-0.0,0.5110460519790649,0.8500954508781433,0.12603726983070374,-6.973820209503174,0.488319993019104,-8.225139617919922,0.0,533587.0
1.0,39.4843635559082,28.89809226989746,-64.10798645019531,-98.72212982177734,0.0,0.0,0.0,-0.0,0.5110460519790649,0.8500954508781433,0.12603726983070374,-6.973820209503174,0.488319993019104,-8.225139617919922,0.0,533588.0
1.0,81.94293975830078,37.487491607666016,-9.634684562683105,-22.618741989135742,0.0,0.0,0.0,-0.0,0.5110460519790649,0.8500954508781433,0.12603726983070374,-6.973820209503174,0.488319993019104,-8.225139617919922,0.0,533589.0
1.0,85.21472930908203,25.10723304748535,51.75496292114258,58.1784553527832,0.0,0.0,0.0,-0.0,0.5110460519790649,0.8500954508781433,0.12603726983070374,-6.973820209503174,0.488319993019104,-8.225139617919922,0.0,533590.0
1.0,48.69308090209961,-1.4456439018249512,89.9386978149414,109.46883392333984,0.0,0.0,0.0,-0.0,0.5110460519790649,0.8500954508781433,0.12603726983070374,-6.973820209503174,0.488319993019104,-8.225139617919922,0.0,533591.0
1.0,-9.693156242370605,-28.36510467529297,84.27068328857422,109.51624298095703,0.0,0.0,0.0,-0.0,0.5119615793228149,0.8580910563468933,0.13024869561195374,-12.696319580078125,4.684820175170898,-6.378680229187012,0.0,533592.0
1.0,-59.529151916503906,-41.156288146972656,37.72109603881836,59.297119140625,0.0,0.0,0.0,-0.0,0.5119615793228149,0.8580910563468933,0.13024869561195374,-12.696319580078125,4.684820175170898,-6.378680229187012,0.0,533593.0
1.0,-70.2145767211914,-31.78099822998047,-19.224552154541016,-6.261903762817383,0.0,0.0,0.0,-0.0,0.5119615793228149,0.8580910563468933,0.13024869561195374,-12.696319580078125,4.684820175170898,-6.378680229187012,0.0,533594.0
1.0,-39.67420196533203,-4.327444076538086,-58.78458023071289,-53.904788970947266,0.0,0.0,0.0,-0.0,0.5119615793228149,0.8580910563468933,0.13024869561195374,-12.696319580078125,4.684820175170898,-6.378680229187012,0.0,533595.0
1.0,-2.5671584606170654,25.732868194580078,-79.72445678710938,-86.91575622558594,0.0,0.0,0.0,-0.0,0.5119615793228149,0.8580910563468933,0.13024869561195374,-12.696319580078125,4.684820175170898,-6.378680229187012,0.0,533596.0
1.0,9.790321350097656,41.008182525634766,-83.37285614013672,-107.5502700805664,0.0,0.0,0.0,-0.0,0.5119615793228149,0.8580910563468933,0.13024869561195374,-12.696319580078125,4.684820175170898,-6.378680229187012,0.0,533597.0
1.0,2.482982873916626,33.795677185058594,-55.03146743774414,-85.25577545166016,0.0,0.0,0.0,-0.0,0.5119615793228149,0.8580910563468933,0.13024869561195374,-12.696319580078125,4.684820175170898,-6.378680229187012,0.0,533598.0
1.0,-1.3946583271026611,9.577007293701172,8.756697654724121,-4.566354274749756,0.0,0.0,0.0,-0.0,0.5119615793228149,0.8580910563468933,0.13024869561195374,-12.696319580078125,4.684820175170898,-6.378680229187012,0.0,533599.0
1.0,6.505260944366455,-18.233562469482422,77.10601043701172,92.4739761352539,0.0,0.0,0.0,-0.0,0.5119615793228149,0.8580910563468933,0.13024869561195374,-12.696319580078125,4.684820175170898,-6.378680229187012,0.0,533600.0
1.0,16.182384490966797,-35.55830764770508,105.55014038085938,138.147705078125,0.0,0.0,0.0,-0.0,0.5119615793228149,0.8580910563468933,0.13024869561195374,-12.696319580078125,4.684820175170898,-6.378680229187012,0.0,533601.0
1.0,20.36935043334961,-33.6756477355957,77.17344665527344,104.164794921875,0.0,0.0,0.0,-0.0,0.5169054269790649,0.8653542399406433,0.12261931598186493,-7.477399826049805,5.38677978515625,-1.7396399974822998,0.0,533602.0
1.0,25.27053451538086,-13.296247482299805,17.04787254333496,25.363073348999023,0.0,0.0,0.0,-0.0,0.5169054269790649,0.8653542399406433,0.12261931598186493,-7.477399826049805,5.38677978515625,-1.7396399974822998,0.0,533603.0
1.0,34.38066482543945,15.030160903930664,-34.940269470214844,-44.57057189941406,0.0,0.0,0.0,-0.0,0.5169054269790649,0.8653542399406433,0.12261931598186493,-7.477399826049805,5.38677978515625,-1.7396399974822998,0.0,533604.0
1.0,32.22941207885742,35.58170700073242,-58.858734130859375,-81.69564056396484,0.0,0.0,0.0,-0.0,0.5169054269790649,0.8653542399406433,0.12261931598186493,-7.477399826049805,5.38677978515625,-1.7396399974822998,0.0,533605.0
1.0,2.054865837097168,36.524627685546875,-58.174537658691406,-85.50520324707031,0.0,0.0,0.0,-0.0,0.5169054269790649,0.8653542399406433,0.12261931598186493,-7.477399826049805,5.38677978515625,-1.7396399974822998,0.0,533606.0
1.0,-45.874698638916016,17.259279251098633,-40.9489631652832,-58.10224533081055,0.0,0.0,0.0,-0.0,0.5169054269790649,0.8653542399406433,0.12261931598186493,-7.477399826049805,5.38677978515625,-1.7396399974822998,0.0,533607.0
1.0,-80.90217590332031,-11.819510459899902,-13.833996772766113,-13.26862621307373,0.0,0.0,0.0,-0.0,0.5169054269790649,0.8653542399406433,0.12261931598186493,-7.477399826049805,5.38677978515625,-1.7396399974822998,0.0,533608.0
1.0,-78.20332336425781,-34.97000503540039,13.62828254699707,23.188278198242188,0.0,0.0,0.0,-0.0,0.5169054269790649,0.8653542399406433,0.12261931598186493,-7.477399826049805,5.38677978515625,-1.7396399974822998,0.0,533609.0
1.0,-34.21580123901367,-39.08413314819336,32.033939361572266,39.880619049072266,0.0,0.0,0.0,-0.0,0.5169054269790649,0.8653542399406433,0.12261931598186493,-7.477399826049805,5.38677978515625,-1.7396399974822998,0.0,533610.0
1.0,30.783666610717773,-21.4571533203125,36.65017318725586,44.24728012084961,0.0,0.0,0.0,-0.0,0.5169054269790649,0.8653542399406433,0.12261931598186493,-7.477399826049805,5.38677978515625,-1.7396399974822998,0.0,533611.0
1.0,83.66703796386719,8.139410018920898,27.357425689697266,40.00053024291992,0.0,0.0,-0.0,-0.0,0.5136095285415649,0.8721901774406433,0.11590546369552612,-0.7630000114440918,5.432559967041016,5.691979885101318,0.0,533612.0
1.0,96.80352783203125,32.94281768798828,8.594255447387695,23.189191818237305,0.0,0.0,-0.0,-0.0,0.5136095285415649,0.8721901774406433,0.11590546369552612,-0.7630000114440918,5.432559967041016,5.691979885101318,0.0,533613.0
1.0,64.13622283935547,39.26317596435547,-9.589676856994629,-2.879659652709961,0.0,0.0,-0.0,-0.0,0.5136095285415649,0.8721901774406433,0.11590546369552612,-0.7630000114440918,5.432559967041016,5.691979885101318,0.0,533614.0
1.0,6.3636555671691895,24.68909454345703,-15.002618789672852,-24.025291442871094,0.0,0.0,-0.0,-0.0,0.5136095285415649,0.8721901774406433,0.11590546369552612,-0.7630000114440918,5.432559967041016,5.691979885101318,0.0,533615.0
1.0,-45.10529327392578,-2.046675443649292,-3.767617702484131,-25.809690475463867,0.0,0.0,-0.0,-0.0,0.5136095285415649,0.8721901774406433,0.11590546369552612,-0.7630000114440918,5.432559967041016,5.691979885101318,0.0,533616.0
1.0,-71.4947738647461,-27.214401245117188,11.020837783813477,-7.876829147338867,0.0,0.0,-0.0,-0.0,0.5136095285415649,0.8721901774406433,0.11590546369552612,-0.7630000114440918,5.432559967041016,5.691979885101318,0.0,533617.0
1.0,-71.62315368652344,-38.57246780395508,8.28310489654541,10.829297065734863,0.0,0.0,-0.0,-0.0,0.5136095285415649,0.8721901774406433,0.11590546369552612,-0.7630000114440918,5.432559967041016,5.691979885101318,0.0,533618.0
1.0,-50.0840950012207,-30.622278213500977,-16.837162017822266,9.515486717224121,0.0,0.0,-0.0,-0.0,0.5136095285415649,0.8721901774406433,0.11590546369552612,-0.7630000114440918,5.432559967041016,5.691979885101318,0.0,533619.0
1.0,-11.068327903747559,-7.147590160369873,-43.32054901123047,-9.443729400634766,0.0,0.0,-0.0,-0.0,0.5136095285415649,0.8721901774406433,0.11590546369552612,-0.7630000114440918,5.432559967041016,5.691979885101318,0.0,533620.0
1.0,34.13967514038086,19.97883415222168,-44.83909606933594,-24.6979923248291,0.0,0.0,-0.0,-0.0,0.5136095285415649,0.8721901774406433,0.11590546369552612,-0.7630000114440918,5.432559967041016,5.691979885101318,0.0,533621.0
1.0,64.38397979736328,36.032527923583984,-16.65410041809082,-23.110090255737305,0.0,0.0,-0.0,-0.0,0.5068346261978149,0.8533303141593933,0.12329070270061493,2.456860065460205,0.3052000105381012,5.463079929351807,0.0,533622.0
1.0,61.77986145019531,31.918502807617188,21.98097038269043,-9.453659057617188,0.0,0.0,-0.0,-0.0,0.5068346261978149,0.8533303141593933,0.12329070270061493,2.456860065460205,0.3052000105381012,5.463079929351807,0.0,533623.0
1.0,26.97235107421875,10.002816200256348,48.485374450683594,5.595290184020996,0.0,0.0,-0.0,-0.0,0.5068346261978149,0.8533303141593933,0.12329070270061493,2.456860065460205,0.3052000105381012,5.463079929351807,0.0,533624.0
1.0,-18.936752319335938,-17.370058059692383,52.46576690673828,18.040931701660156,0.0,0.0,-0.0,-0.0,0.5068346261978149,0.8533303141593933,0.12329070270061493,2.456860065460205,0.3052000105381012,5.463079929351807,0.0,533625.0
1.0,-49.082000732421875,-34.82481002807617,34.13743591308594,27.521854400634766,0.0,0.0,-0.0,-0.0,0.5068346261978149,0.8533303141593933,0.12329070270061493,2.456860065460205,0.3052000105381012,5.463079929351807,0.0,533626.0
1.0,-48.78620529174805,-32.51151657104492,1.856187343597412,26.167341232299805,0.0,0.0,-0.0,-0.0,0.5068346261978149,0.8533303141593933,0.12329070270061493,2.456860065460205,0.3052000105381012,5.463079929351807,0.0,533627.0
1.0,-20.64002227783203,-11.641862869262695,-28.39103126525879,6.6202006340026855,0.0,0.0,-0.0,-0.0,0.5068346261978149,0.8533303141593933,0.12329070270061493,2.456860065460205,0.3052000105381012,5.463079929351807,0.0,533628.0
1.0,20.16758918762207,16.38289451599121,-40.8768424987793,-19.352664947509766,0.0,0.0,-0.0,-0.0,0.5068346261978149,0.8533303141593933,0.12329070270061493,2.456860065460205,0.3052000105381012,5.463079929351807,0.0,533629.0
1.0,52.33628463745117,36.21416091918945,-29.179927825927734,-26.49237823486328,0.0,0.0,-0.0,-0.0,0.5068346261978149,0.8533303141593933,0.12329070270061493,2.456860065460205,0.3052000105381012,5.463079929351807,0.0,533630.0
1.0,55.6016960144043,36.75664520263672,-2.482593059539795,-7.799211025238037,0.0,0.0,-0.0,-0.0,0.5068346261978149,0.8533303141593933,0.12329070270061493,2.456860065460205,0.3052000105381012,5.463079929351807,0.0,533631.0
1.0,23.12868309020996,17.15191650390625,19.879592895507812,13.97751522064209,0.0,0.0,-0.0,-0.0,0.5041490793228149,0.8383767604827881,0.13592495024204254,1.1139800548553467,-1.0681999921798706,-2.716279983520508,0.0,533632.0
1.0,-27.74424934387207,-12.462979316711426,26.148765563964844,18.782718658447266,0.0,0.0,-0.0,-0.0,0.5041490793228149,0.8383767604827881,0.13592495024204254,1.1139800548553467,-1.0681999921798706,-2.716279983520508,0.0,533633.0
1.0,-65.93828582763672,-35.655914306640625,16.429655075073242,10.794577598571777,0.0,0.0,-0.0,-0.0,0.5041490793228149,0.8383767604827881,0.13592495024204254,1.1139800548553467,-1.0681999921798706,-2.716279983520508,0.0,533634.0
1.0,-68.00495910644531,-38.77456283569336,-3.589407444000244,-0.2543419599533081,0.0,0.0,-0.0,-0.0,0.5041490793228149,0.8383767604827881,0.13592495024204254,1.1139800548553467,-1.0681999921798706,-2.716279983520508,0.0,533635.0
1.0,-32.23466873168945,-19.737018585205078,-25.333120346069336,-15.2724609375,0.0,0.0,-0.0,-0.0,0.5041490793228149,0.8383767604827881,0.13592495024204254,1.1139800548553467,-1.0681999921798706,-2.716279983520508,0.0,533636.0
1.0,19.83291244506836,10.530685424804688,-39.689327239990234,-34.603515625,0.0,0.0,-0.0,-0.0,0.5041490793228149,0.8383767604827881,0.13592495024204254,1.1139800548553467,-1.0681999921798706,-2.716279983520508,0.0,533637.0
1.0,59.994144439697266,34.89700698852539,-36.36851119995117,-42.41835021972656,0.0,0.0,-0.0,-0.0,0.5041490793228149,0.8383767604827881,0.13592495024204254,1.1139800548553467,-1.0681999921798706,-2.716279983520508,0.0,533638.0
1.0,71.1432876586914,39.9429931640625,-9.36019515991211,-20.860353469848633,0.0,0.0,-0.0,0.0,0.5041490793228149,0.8383767604827881,0.13592495024204254,1.1139800548553467,-1.0681999921798706,-2.716279983520508,0.0,533639.0
1.0,50.001312255859375,23.2062931060791,31.903966903686523,22.158538818359375,0.0,0.0,-0.0,0.0,0.5041490793228149,0.8383767604827881,0.13592495024204254,1.1139800548553467,-1.0681999921798706,-2.716279983520508,0.0,533640.0
1.0,6.228482723236084,-6.250718593597412,66.17523956298828,58.84353256225586,0.0,0.0,-0.0,0.0,0.5041490793228149,0.8383767604827881,0.13592495024204254,1.1139800548553467,-1.0681999921798706,-2.716279983520508,0.0,533641.0
1.0,-37.8089485168457,-33.03682327270508,74.25723266601562,68.99853515625,0.0,0.0,-0.0,0.0,0.5083605051040649,0.8364236354827881,0.14190638065338135,0.6561800241470337,-0.015259999781847,-8.301440238952637,0.0,533642.0
1.0,-59.988704681396484,-43.15599822998047,47.191688537597656,48.27037811279297,0.0,0.0,-0.0,0.0,0.5083605051040649,0.8364236354827881,0.14190638065338135,0.6561800241470337,-0.015259999781847,-8.301440238952637,0.0,533643.0
1.0,-54.866580963134766,-31.098068237304688,-8.989187240600586,3.324876070022583,0.0,0.0,-0.0,0.0,0.5083605051040649,0.8364236354827881,0.14190638065338135,0.6561800241470337,-0.015259999781847,-8.301440238952637,0.0,533644.0
1.0,-29.84619140625,-2.5369133949279785,-69.91314697265625,-48.09505081176758,0.0,0.0,-0.0,0.0,0.5083605051040649,0.8364236354827881,0.14190638065338135,0.6561800241470337,-0.015259999781847,-8.301440238952637,0.0,533645.0
1.0,5.520778179168701,28.048439025878906,-101.76602935791016,-79.59720611572266,0.0,0.0,-0.0,0.0,0.5083605051040649,0.8364236354827881,0.14190638065338135,0.6561800241470337,-0.015259999781847,-8.301440238952637,0.0,533646.0
1.0,36.52674102783203,44.1358528137207,-84.28733825683594,-69.82364654541016,0.0,0.0,-0.0,0.0,0.5083605051040649,0.8364236354827881,0.14190638065338135,0.6561800241470337,-0.015259999781847,-8.301440238952637,0.0,533647.0
1.0,44.72858810424805,36.70884704589844,-27.709627151489258,-24.67456817626953,0.0,0.0,-0.0,0.0,0.5083605051040649,0.8364236354827881,0.14190638065338135,0.6561800241470337,-0.015259999781847,-8.301440238952637,0.0,533648.0
1.0,24.386709213256836,9.894259452819824,35.8076286315918,22.018247604370117,0.0,0.0,-0.0,0.0,0.5083605051040649,0.8364236354827881,0.14190638065338135,0.6561800241470337,-0.015259999781847,-8.301440238952637,0.0,533649.0
1.0,-8.694133758544922,-21.690216064453125,77.10078430175781,45.1610107421875,0.0,0.0,-0.0,0.0,0.5083605051040649,0.8364236354827881,0.14190638065338135,0.6561800241470337,-0.015259999781847,-8.301440238952637,0.0,533650.0
1.0,-28.820499420166016,-41.136478424072266,84.00851440429688,48.33531188964844,0.0,0.0,-0.0,0.0,0.5083605051040649,0.8364236354827881,0.14190638065338135,0.6561800241470337,-0.015259999781847,-8.301440238952637,0.0,533651.0
1.0,-20.59869384765625,-38.52413558959961,58.713050842285156,40.98518753051758,0.0,0.0,-0.0,0.0,0.5123277902603149,0.8414895534515381,0.13824427127838135,1.7548999786376953,0.122079998254776,-6.775440216064453,0.0,533652.0
1.0,8.847052574157715,-16.094444274902344,13.119657516479492,21.978452682495117,0.0,0.0,-0.0,0.0,0.5123277902603149,0.8414895534515381,0.13824427127838135,1.7548999786376953,0.122079998254776,-6.775440216064453,0.0,533653.0
1.0,34.56425094604492,13.786094665527344,-33.787593841552734,-8.159273147583008,0.0,0.0,-0.0,0.0,0.5123277902603149,0.8414895534515381,0.13824427127838135,1.7548999786376953,0.122079998254776,-6.775440216064453,0.0,533654.0
1.0,33.1710319519043,35.446250915527344,-63.74952697753906,-39.03288650512695,0.0,0.0,-0.0,0.0,0.5123277902603149,0.8414895534515381,0.13824427127838135,1.7548999786376953,0.122079998254776,-6.775440216064453,0.0,533655.0
1.0,2.6273488998413086,37.89657211303711,-67.43590545654297,-58.95806121826172,0.0,0.0,-0.0,0.0,0.5123277902603149,0.8414895534515381,0.13824427127838135,1.7548999786376953,0.122079998254776,-6.775440216064453,0.0,533656.0
1.0,-34.88719177246094,20.521209716796875,-42.913368225097656,-55.13895797729492,0.0,0.0,-0.0,0.0,0.5123277902603149,0.8414895534515381,0.13824427127838135,1.7548999786376953,0.122079998254776,-6.775440216064453,0.0,533657.0
1.0,-50.97737121582031,-6.856674671173096,4.881381511688232,-15.944952011108398,0.0,0.0,-0.0,0.0,0.5123277902603149,0.8414895534515381,0.13824427127838135,1.7548999786376953,0.122079998254776,-6.775440216064453,0.0,533658.0
1.0,-32.2373046875,-29.161415100097656,58.41537094116211,49.493072509765625,0.0,0.0,-0.0,0.0,0.5123277902603149,0.8414895534515381,0.13824427127838135,1.7548999786376953,0.122079998254776,-6.775440216064453,0.0,533659.0
1.0,9.857080459594727,-34.42198944091797,88.3454818725586,102.00728607177734,0.0,0.0,-0.0,0.0,0.5123277902603149,0.8414895534515381,0.13824427127838135,1.7548999786376953,0.122079998254776,-6.775440216064453,0.0,533660.0
1.0,44.77591323852539,-20.91860580444336,67.79225158691406,92.37643432617188,0.0,0.0,-0.0,0.0,0.5123277902603149,0.8414895534515381,0.13824427127838135,1.7548999786376953,0.122079998254776,-6.775440216064453,0.0,533661.0
1.0,50.01105499267578,2.905369758605957,0.7162806391716003,12.5154447555542,0.0,0.0,-0.0,0.0,0.5144029855728149,0.8452126979827881,0.13415493071079254,9.766400337219238,-0.366239994764328,-2.075360059738159,0.0,533662.0
1.0,31.33826446533203,24.174644470214844,-67.91852569580078,-76.64842224121094,0.0,0.0,-0.0,0.0,0.5144029855728149,0.8452126979827881,0.13415493071079254,9.766400337219238,-0.366239994764328,-2.075360059738159,0.0,533663.0
1.0,6.399201393127441,31.91044044494629,-90.95452880859375,-103.76371002197266,0.0,0.0,-0.0,0.0,0.5144029855728149,0.8452126979827881,0.13415493071079254,9.766400337219238,-0.366239994764328,-2.075360059738159,0.0,533664.0
1.0,-19.52788543701172,22.072473526000977,-63.039310455322266,-63.679710388183594,0.0,0.0,-0.0,0.0,0.5144029855728149,0.8452126979827881,0.13415493071079254,9.766400337219238,-0.366239994764328,-2.075360059738159,0.0,533665.0
1.0,-47.93645477294922,-0.5335276126861572,-14.558484077453613,-7.675090312957764,0.0,0.0,-0.0,0.0,0.5144029855728149,0.8452126979827881,0.13415493071079254,9.766400337219238,-0.366239994764328,-2.075360059738159,0.0,533666.0
1.0,-65.93700408935547,-23.88381004333496,26.067813873291016,25.109176635742188,0.0,0.0,-0.0,0.0,0.5144029855728149,0.8452126979827881,0.13415493071079254,9.766400337219238,-0.366239994764328,-2.075360059738159,0.0,533667.0
1.0,-51.40217971801758,-34.268367767333984,49.23259735107422,35.76028060913086,0.0,0.0,-0.0,0.0,0.5144029855728149,0.8452126979827881,0.13415493071079254,9.766400337219238,-0.366239994764328,-2.075360059738159,0.0,533668.0
1.0,-0.1373116821050644,-24.63828468322754,56.18645477294922,40.03167724609375,0.0,0.0,-0.0,0.0,0.5144029855728149,0.8452126979827881,0.13415493071079254,9.766400337219238,-0.366239994764328,-2.075360059738159,0.0,533669.0
1.0,61.398338317871094,0.222268745303154,47.56184005737305,40.06269073486328,0.0,0.0,-0.0,0.0,0.5144029855728149,0.8452126979827881,0.13415493071079254,9.766400337219238,-0.366239994764328,-2.075360059738159,0.0,533670.0
1.0,90.42033386230469,25.762176513671875,18.473215103149414,21.857105255126953,0.0,0.0,-0.0,0.0,0.5144029855728149,0.8452126979827881,0.13415493071079254,9.766400337219238,-0.366239994764328,-2.075360059738159,0.0,533671.0
1.0,64.37287139892578,36.525657653808594,-25.214569091796875,-14.434686660766602,0.0,0.0,-0.0,0.0,0.5092760324478149,0.8467385768890381,0.13354457914829254,11.475520133972168,-4.059160232543945,-3.7081799507141113,0.0,533672.0
1.0,3.2343499660491943,26.430877685546875,-55.62844467163086,-39.29269027709961,0.0,0.0,-0.0,0.0,0.5092760324478149,0.8467385768890381,0.13354457914829254,11.475520133972168,-4.059160232543945,-3.7081799507141113,0.0,533673.0
1.0,-52.64183807373047,1.7739633321762085,-49.64423370361328,-31.337297439575195,0.0,0.0,-0.0,0.0,0.5092760324478149,0.8467385768890381,0.13354457914829254,11.475520133972168,-4.059160232543945,-3.7081799507141113,0.0,533674.0
1.0,-76.82110595703125,-23.9292049407959,-15.287535667419434,-5.28628396987915,0.0,0.0,-0.0,0.0,0.5092760324478149,0.8467385768890381,0.13354457914829254,11.475520133972168,-4.059160232543945,-3.7081799507141113,0.0,533675.0
1.0,-66.72586059570312,-37.26350021362305,18.8686466217041,11.695931434631348,0.0,0.0,-0.0,0.0,0.5092760324478149,0.8467385768890381,0.13354457914829254,11.475520133972168,-4.059160232543945,-3.7081799507141113,0.0,533676.0
1.0,-32.82781982421875,-31.164514541625977,30.485671997070312,9.993234634399414,0.0,0.0,-0.0,0.0,0.5092760324478149,0.8467385768890381,0.13354457914829254,11.475520133972168,-4.059160232543945,-3.7081799507141113,0.0,533677.0
1.0,13.077445983886719,-8.204018592834473,18.730417251586914,-0.1202615424990654,0.0,0.0,-0.0,0.0,0.5092760324478149,0.8467385768890381,0.13354457914829254,11.475520133972168,-4.059160232543945,-3.7081799507141113,0.0,533678.0
1.0,57.70915222167969,20.452978134155273,0.5428584218025208,-1.4852415323257446,0.0,0.0,-0.0,0.0,0.5092760324478149,0.8467385768890381,0.13354457914829254,11.475520133972168,-4.059160232543945,-3.7081799507141113,0.0,533679.0
1.0,82.15824127197266,39.723121643066406,-6.828005313873291,12.99238395690918,0.0,0.0,-0.0,0.0,0.5092760324478149,0.8467385768890381,0.13354457914829254,11.475520133972168,-4.059160232543945,-3.7081799507141113,0.0,533680.0
1.0,69.85477447509766,38.35898971557617,-0.7110468149185181,25.900890350341797,0.0,0.0,-0.0,0.0,0.5092760324478149,0.8467385768890381,0.13354457914829254,11.475520133972168,-4.059160232543945,-3.7081799507141113,0.0,533681.0
1.0,22.750341415405273,16.187236785888672,9.87778377532959,13.047521591186523,0.0,0.0,-0.0,0.0,0.5087877511978149,0.8532692790031433,0.13378871977329254,3.3571999073028564,-4.074419975280762,-5.051060199737549,0.0,533682.0
1.0,-34.612613677978516,-15.211114883422852,16.899757385253906,-16.589014053344727,0.0,0.0,-0.0,0.0,0.5087877511978149,0.8532692790031433,0.13378871977329254,3.3571999073028564,-4.074419975280762,-5.051060199737549,0.0,533683.0
1.0,-69.83770751953125,-38.764312744140625,17.711345672607422,-28.637737274169922,0.0,0.0,-0.0,0.0,0.5087877511978149,0.8532692790031433,0.13378871977329254,3.3571999073028564,-4.074419975280762,-5.051060199737549,0.0,533684.0
1.0,-63.46621322631836,-41.26420211791992,11.96754264831543,-9.257248878479004,0.0,0.0,-0.0,0.0,0.5087877511978149,0.8532692790031433,0.13378871977329254,3.3571999073028564,-4.074419975280762,-5.051060199737549,0.0,533685.0
1.0,-23.315628051757812,-21.362789154052734,-2.4205658435821533,19.097143173217773,0.0,0.0,-0.0,0.0,0.5087877511978149,0.8532692790031433,0.13378871977329254,3.3571999073028564,-4.074419975280762,-5.051060199737549,0.0,533686.0
1.0,18.86178970336914,9.30150032043457,-28.684175491333008,19.784423828125,0.0,0.0,-0.0,0.0,0.5087877511978149,0.8532692790031433,0.13378871977329254,3.3571999073028564,-4.074419975280762,-5.051060199737549,0.0,533687.0
1.0,32.89225387573242,33.30009078979492,-59.691444396972656,-18.11464500427246,0.0,0.0,-0.0,0.0,0.5087877511978149,0.8532692790031433,0.13378871977329254,3.3571999073028564,-4.074419975280762,-5.051060199737549,0.0,533688.0
1.0,15.72970962524414,37.95586013793945,-72.28287506103516,-60.73615646362305,0.0,0.0,-0.0,0.0,0.5087877511978149,0.8532692790031433,0.13378871977329254,3.3571999073028564,-4.074419975280762,-5.051060199737549,0.0,533689.0
1.0,-10.011473655700684,22.070144653320312,-44.752140045166016,-61.8459587097168,0.0,0.0,-0.0,0.0,0.5087877511978149,0.8532692790031433,0.13378871977329254,3.3571999073028564,-4.074419975280762,-5.051060199737549,0.0,533690.0
1.0,-19.13896942138672,-4.914495944976807,20.546798706054688,-7.404933452606201,0.0,0.0,-0.0,0.0,0.5087877511978149,0.8532692790031433,0.13378871977329254,3.3571999073028564,-4.074419975280762,-5.051060199737549,0.0,533691.0
1.0,-3.5200893878936768,-28.650236129760742,92.41368103027344,71.90025329589844,0.0,0.0,0.0,0.0,0.5112901926040649,0.8525978922843933,0.13079801201820374,0.6561800241470337,-2.334779977798462,-6.851739883422852,0.0,533692.0
1.0,24.3260440826416,-36.820396423339844,126.92105102539062,119.97940826416016,0.0,0.0,0.0,0.0,0.5112901926040649,0.8525978922843933,0.13079801201820374,0.6561800241470337,-2.334779977798462,-6.851739883422852,0.0,533693.0
1.0,39.904144287109375,-25.357431411743164,94.33025360107422,95.30693054199219,0.0,0.0,0.0,0.0,0.5112901926040649,0.8525978922843933,0.13079801201820374,0.6561800241470337,-2.334779977798462,-6.851739883422852,0.0,533694.0
1.0,24.44639778137207,-0.5193561315536499,1.432403564453125,5.529118061065674,0.0,0.0,0.0,0.0,0.5112901926040649,0.8525978922843933,0.13079801201820374,0.6561800241470337,-2.334779977798462,-6.851739883422852,0.0,533695.0
1.0,-14.600808143615723,24.72349739074707,-102.31889343261719,-93.95763397216797,0.0,0.0,0.0,0.0,0.5112901926040649,0.8525978922843933,0.13079801201820374,0.6561800241470337,-2.334779977798462,-6.851739883422852,0.0,533696.0
1.0,-46.829193115234375,37.245567321777344,-151.15792846679688,-138.73956298828125,0.0,0.0,0.0,0.0,0.5112901926040649,0.8525978922843933,0.13079801201820374,0.6561800241470337,-2.334779977798462,-6.851739883422852,0.0,533697.0
1.0,-49.609642028808594,30.405105590820312,-113.96322631835938,-102.56922149658203,0.0,0.0,0.0,0.0,0.5112901926040649,0.8525978922843933,0.13079801201820374,0.6561800241470337,-2.334779977798462,-6.851739883422852,0.0,533698.0
1.0,-25.798660278320312,7.682015895843506,-16.75773811340332,-11.414405822753906,0.0,0.0,0.0,0.0,0.5112901926040649,0.8525978922843933,0.13079801201820374,0.6561800241470337,-2.334779977798462,-6.851739883422852,0.0,533699.0
1.0,7.77224588394165,-19.128061294555664,83.32649993896484,80.1718978881836,0.0,0.0,0.0,0.0,0.5112901926040649,0.8525978922843933,0.13079801201820374,0.6561800241470337,-2.334779977798462,-6.851739883422852,0.0,533700.0
1.0,36.56699752807617,-35.81304931640625,136.9469757080078,122.91436767578125,0.0,0.0,0.0,0.0,0.5112901926040649,0.8525978922843933,0.13079801201820374,0.6561800241470337,-2.334779977798462,-6.851739883422852,0.0,533701.0
1.0,52.802730560302734,-33.100982666015625,124.67185974121094,100.89080047607422,0.0,0.0,0.0,0.0,0.5124498605728149,0.8553444743156433,0.12634244561195374,4.455920219421387,-0.8087800145149231,-6.424459934234619,0.0,533702.0
1.0,50.854068756103516,-12.215462684631348,55.82671356201172,33.05659866333008,0.0,0.0,0.0,0.0,0.5124498605728149,0.8553444743156433,0.12634244561195374,4.455920219421387,-0.8087800145149231,-6.424459934234619,0.0,533703.0
1.0,26.063430786132812,15.367067337036133,-40.18928146362305,-47.54193878173828,0.0,0.0,0.0,0.0,0.5124498605728149,0.8553444743156433,0.12634244561195374,4.455920219421387,-0.8087800145149231,-6.424459934234619,0.0,533704.0
1.0,-15.709918022155762,34.39169692993164,-118.67969512939453,-103.85789489746094,0.0,0.0,0.0,0.0,0.5124498605728149,0.8553444743156433,0.12634244561195374,4.455920219421387,-0.8087800145149231,-6.424459934234619,0.0,533705.0
1.0,-53.00735092163086,34.493709564208984,-137.01136779785156,-105.39173126220703,0.0,0.0,0.0,0.0,0.5124498605728149,0.8553444743156433,0.12634244561195374,4.455920219421387,-0.8087800145149231,-6.424459934234619,0.0,533706.0
1.0,-63.519447326660156,15.691669464111328,-83.91519165039062,-52.108314514160156,0.0,0.0,0.0,0.0,0.5124498605728149,0.8553444743156433,0.12634244561195374,4.455920219421387,-0.8087800145149231,-6.424459934234619,0.0,533707.0
1.0,-43.414241790771484,-12.02804183959961,9.160346031188965,22.964237213134766,0.0,0.0,0.0,0.0,0.5124498605728149,0.8553444743156433,0.12634244561195374,4.455920219421387,-0.8087800145149231,-6.424459934234619,0.0,533708.0
1.0,-7.509275436401367,-33.77594757080078,88.64523315429688,78.28021240234375,0.0,0.0,0.0,0.0,0.5124498605728149,0.8553444743156433,0.12634244561195374,4.455920219421387,-0.8087800145149231,-6.424459934234619,0.0,533709.0
1.0,25.794042587280273,-37.44193649291992,114.4631576538086,87.00434875488281,0.0,0.0,0.0,0.0,0.5124498605728149,0.8553444743156433,0.12634244561195374,4.455920219421387,-0.8087800145149231,-6.424459934234619,0.0,533710.0
1.0,45.00615310668945,-20.658790588378906,80.89995574951172,49.84272384643555,0.0,0.0,0.0,0.0,0.5124498605728149,0.8553444743156433,0.12634244561195374,4.455920219421387,-0.8087800145149231,-6.424459934234619,0.0,533711.0
1.0,46.3447380065918,7.599668502807617,12.722550392150879,-6.380474090576172,0.0,0.0,0.0,0.0,0.5126329660415649,0.8560158610343933,0.12353484332561493,9.781660079956055,-0.5340999960899353,-1.1597599983215332,0.0,533712.0
1.0,32.43920135498047,31.930212020874023,-50.2963752746582,-45.837440490722656,0.0,0.0,0.0,0.0,0.5126329660415649,0.8560158610343933,0.12353484332561493,9.781660079956055,-0.5340999960899353,-1.1597599983215332,0.0,533713.0
1.0,11.357285499572754,39.24081039428711,-74.58134460449219,-46.493507385253906,0.0,0.0,0.0,0.0,0.5126329660415649,0.8560158610343933,0.12353484332561493,9.781660079956055,-0.5340999960899353,-1.1597599983215332,0.0,533714.0
1.0,-7.695955276489258,26.00022315979004,-51.90516662597656,-14.545430183410645,0.0,0.0,0.0,0.0,0.5126329660415649,0.8560158610343933,0.12353484332561493,9.781660079956055,-0.5340999960899353,-1.1597599983215332,0.0,533715.0
1.0,-20.709810256958008,-0.6134029626846313,-1.175799012184143,21.826845169067383,0.0,0.0,0.0,0.0,0.5126329660415649,0.8560158610343933,0.12353484332561493,9.781660079956055,-0.5340999960899353,-1.1597599983215332,0.0,533716.0
1.0,-27.83519172668457,-26.794050216674805,45.24169921875,35.56187057495117,0.0,0.0,0.0,0.0,0.5126329660415649,0.8560158610343933,0.12353484332561493,9.781660079956055,-0.5340999960899353,-1.1597599983215332,0.0,533717.0
1.0,-29.85260772705078,-38.91948699951172,56.61003112792969,18.070619583129883,0.0,0.0,0.0,0.0,0.5126329660415649,0.8560158610343933,0.12353484332561493,9.781660079956055,-0.5340999960899353,-1.1597599983215332,0.0,533718.0
1.0,-31.200218200683594,-30.81441307067871,18.154224395751953,-22.172183990478516,0.0,0.0,0.0,0.0,0.5126329660415649,0.8560158610343933,0.12353484332561493,9.781660079956055,-0.5340999960899353,-1.1597599983215332,0.0,533719.0
1.0,-32.89832305908203,-6.856045246124268,-50.68717956542969,-64.00675201416016,0.0,0.0,0.0,0.0,0.5126329660415649,0.8560158610343933,0.12353484332561493,9.781660079956055,-0.5340999960899353,-1.1597599983215332,0.0,533720.0
1.0,-23.719131469726562,20.580821990966797,-98.32508087158203,-77.13823699951172,0.0,0.0,0.0,-0.0,0.5126329660415649,0.8560158610343933,0.12353484332561493,9.781660079956055,-0.5340999960899353,-1.1597599983215332,0.0,533721.0
1.0,3.7035951614379883,37.02982711791992,-82.77420806884766,-42.92158889770508,0.0,0.0,0.0,-0.0,0.5089708566665649,0.8600441813468933,0.12426725775003433,9.079700469970703,-2.1669199466705322,-0.0763000026345253,0.0,533722.0
1.0,38.12821960449219,33.63923263549805,-9.059928894042969,24.53592872619629,0.0,0.0,0.0,-0.0,0.5089708566665649,0.8600441813468933,0.12426725775003433,9.079700469970703,-2.1669199466705322,-0.0763000026345253,0.0,533723.0
1.0,59.26704788208008,12.546711921691895,77.78321838378906,87.13906860351562,0.0,0.0,0.0,-0.0,0.5089708566665649,0.8600441813468933,0.12426725775003433,9.079700469970703,-2.1669199466705322,-0.0763000026345253,0.0,533724.0
1.0,52.25054168701172,-14.522424697875977,125.20671844482422,108.12544250488281,0.0,0.0,0.0,-0.0,0.5089708566665649,0.8600441813468933,0.12426725775003433,9.079700469970703,-2.1669199466705322,-0.0763000026345253,0.0,533725.0
1.0,19.43817901611328,-32.987239837646484,106.11739349365234,73.87525177001953,0.0,0.0,0.0,-0.0,0.5089708566665649,0.8600441813468933,0.12426725775003433,9.079700469970703,-2.1669199466705322,-0.0763000026345253,0.0,533726.0
1.0,-16.25362205505371,-33.131431579589844,36.012874603271484,5.381501197814941,0.0,0.0,0.0,-0.0,0.5089708566665649,0.8600441813468933,0.12426725775003433,9.079700469970703,-2.1669199466705322,-0.0763000026345253,0.0,533727.0
1.0,-29.96197509765625,-15.096506118774414,-41.83484649658203,-56.45406723022461,0.0,0.0,0.0,-0.0,0.5089708566665649,0.8600441813468933,0.12426725775003433,9.079700469970703,-2.1669199466705322,-0.0763000026345253,0.0,533728.0
1.0,-17.909563064575195,11.054624557495117,-88.68933868408203,-81.0461654663086,0.0,0.0,0.0,-0.0,0.5089708566665649,0.8600441813468933,0.12426725775003433,9.079700469970703,-2.1669199466705322,-0.0763000026345253,0.0,533729.0
1.0,3.4558067321777344,30.5261287689209,-88.7242660522461,-64.3374252319336,0.0,0.0,0.0,-0.0,0.5089708566665649,0.8600441813468933,0.12426725775003433,9.079700469970703,-2.1669199466705322,-0.0763000026345253,0.0,533730.0
1.0,16.423917770385742,32.41349792480469,-48.319007873535156,-24.3852481842041,0.0,0.0,0.0,-0.0,0.5089708566665649,0.8600441813468933,0.12426725775003433,9.079700469970703,-2.1669199466705322,-0.0763000026345253,0.0,533731.0
1.0,12.418461799621582,15.902228355407715,9.959755897521973,15.946606636047363,0.0,0.0,0.0,-0.0,0.5064684152603149,0.8681618571281433,0.12695279717445374,1.846459984779358,-2.044840097427368,2.716279983520508,0.0,533732.0
1.0,-9.585330963134766,-10.186811447143555,54.47048568725586,39.83124923706055,0.0,0.0,0.0,-0.0,0.5064684152603149,0.8681618571281433,0.12695279717445374,1.846459984779358,-2.044840097427368,2.716279983520508,0.0,533733.0
1.0,-39.27549362182617,-31.841266632080078,60.70403289794922,38.462215423583984,0.0,0.0,0.0,-0.0,0.5064684152603149,0.8681618571281433,0.12695279717445374,1.846459984779358,-2.044840097427368,2.716279983520508,0.0,533734.0
1.0,-54.76368713378906,-36.47104263305664,28.700231552124023,16.694948196411133,0.0,0.0,0.0,-0.0,0.5064684152603149,0.8681618571281433,0.12695279717445374,1.846459984779358,-2.044840097427368,2.716279983520508,0.0,533735.0
1.0,-39.81328582763672,-20.389745712280273,-18.901836395263672,-9.210479736328125,0.0,0.0,0.0,-0.0,0.5064684152603149,0.8681618571281433,0.12695279717445374,1.846459984779358,-2.044840097427368,2.716279983520508,0.0,533736.0
1.0,2.1413044929504395,8.297530174255371,-52.542755126953125,-24.171165466308594,0.0,0.0,0.0,-0.0,0.5064684152603149,0.8681618571281433,0.12695279717445374,1.846459984779358,-2.044840097427368,2.716279983520508,0.0,533737.0
1.0,49.716129302978516,33.76332092285156,-52.22450256347656,-22.536466598510742,0.0,0.0,0.0,-0.0,0.5064684152603149,0.8681618571281433,0.12695279717445374,1.846459984779358,-2.044840097427368,2.716279983520508,0.0,533738.0
1.0,73.83672332763672,41.28992462158203,-21.438907623291016,-9.688994407653809,0.0,0.0,0.0,-0.0,0.5064684152603149,0.8681618571281433,0.12695279717445374,1.846459984779358,-2.044840097427368,2.716279983520508,0.0,533739.0
1.0,57.67668914794922,26.416486740112305,18.68971824645996,5.29766321182251,0.0,0.0,0.0,-0.0,0.5064684152603149,0.8681618571281433,0.12695279717445374,1.846459984779358,-2.044840097427368,2.716279983520508,0.0,533740.0
1.0,13.614006042480469,-2.470752239227295,51.14939498901367,20.64415168762207,0.0,0.0,0.0,-0.0,0.5064684152603149,0.8681618571281433,0.12695279717445374,1.846459984779358,-2.044840097427368,2.716279983520508,0.0,533741.0
1.0,-27.526752471923828,-29.784086227416992,66.27684020996094,36.06671142578125,0.0,0.0,0.0,-0.0,0.5057359933853149,0.8676735758781433,0.12799039483070374,-3.7997400760650635,-2.334779977798462,0.5340999960899353,0.0,533742.0
1.0,-43.70396423339844,-41.354373931884766,54.3512077331543,39.9415168762207,0.0,0.0,0.0,-0.0,0.5057359933853149,0.8676735758781433,0.12799039483070374,-3.7997400760650635,-2.334779977798462,0.5340999960899353,0.0,533743.0
1.0,-33.99830627441406,-31.37604331970215,13.933713912963867,17.450544357299805,0.0,0.0,0.0,-0.0,0.5057359933853149,0.8676735758781433,0.12799039483070374,-3.7997400760650635,-2.334779977798462,0.5340999960899353,0.0,533744.0
1.0,-13.397058486938477,-5.184737205505371,-41.350257873535156,-29.305591583251953,0.0,0.0,0.0,-0.0,0.5057359933853149,0.8676735758781433,0.12799039483070374,-3.7997400760650635,-2.334779977798462,0.5340999960899353,0.0,533745.0
1.0,-0.085211843252182,23.260412216186523,-86.48072052001953,-73.46327209472656,0.0,0.0,0.0,-0.0,0.5057359933853149,0.8676735758781433,0.12799039483070374,-3.7997400760650635,-2.334779977798462,0.5340999960899353,0.0,533746.0
1.0,-1.3744590282440186,38.5703010559082,-93.85887908935547,-82.3190689086914,0.0,0.0,0.0,-0.0,0.5057359933853149,0.8676735758781433,0.12799039483070374,-3.7997400760650635,-2.334779977798462,0.5340999960899353,0.0,533747.0
1.0,-10.6697998046875,32.666812896728516,-54.07032775878906,-47.02356719970703,0.0,0.0,0.0,-0.0,0.5057359933853149,0.8676735758781433,0.12799039483070374,-3.7997400760650635,-2.334779977798462,0.5340999960899353,0.0,533748.0
1.0,-15.690279960632324,9.304000854492188,13.900439262390137,15.262431144714355,0.0,0.0,0.0,-0.0,0.5057359933853149,0.8676735758781433,0.12799039483070374,-3.7997400760650635,-2.334779977798462,0.5340999960899353,0.0,533749.0
1.0,-6.239477634429932,-18.454570770263672,78.18122100830078,77.88353729248047,0.0,0.0,0.0,-0.0,0.5057359933853149,0.8676735758781433,0.12799039483070374,-3.7997400760650635,-2.334779977798462,0.5340999960899353,0.0,533750.0
1.0,18.66288948059082,-35.39435958862305,110.61378479003906,113.13858032226562,0.0,0.0,0.0,-0.0,0.5057359933853149,0.8676735758781433,0.12799039483070374,-3.7997400760650635,-2.334779977798462,0.5340999960899353,0.0,533751.0
1.0,46.1572265625,-32.41258239746094,95.1611557006836,99.58949279785156,0.0,0.0,0.0,-0.0,0.5090929269790649,0.8630349040031433,0.12585416436195374,-3.4792799949645996,-0.4578000009059906,1.892240047454834,0.0,533752.0
1.0,56.309627532958984,-11.622685432434082,34.6647834777832,34.62897491455078,0.0,0.0,0.0,-0.0,0.5090929269790649,0.8630349040031433,0.12585416436195374,-3.4792799949645996,-0.4578000009059906,1.892240047454834,0.0,533753.0
1.0,37.07819366455078,15.256307601928711,-45.47216033935547,-54.29294967651367,0.0,0.0,0.0,-0.0,0.5090929269790649,0.8630349040031433,0.12585416436195374,-3.4792799949645996,-0.4578000009059906,1.892240047454834,0.0,533754.0
1.0,-5.254910469055176,33.75562286376953,-105.66822814941406,-118.37648010253906,0.0,0.0,0.0,-0.0,0.5090929269790649,0.8630349040031433,0.12585416436195374,-3.4792799949645996,-0.4578000009059906,1.892240047454834,0.0,533755.0
1.0,-48.80570983886719,34.2383918762207,-115.44818115234375,-123.40325164794922,0.0,0.0,0.0,-0.0,0.5090929269790649,0.8630349040031433,0.12585416436195374,-3.4792799949645996,-0.4578000009059906,1.892240047454834,0.0,533756.0
1.0,-70.88436126708984,16.575090408325195,-71.48858642578125,-73.0128402709961,0.0,0.0,0.0,-0.0,0.5090929269790649,0.8630349040031433,0.12585416436195374,-3.4792799949645996,-0.4578000009059906,1.892240047454834,0.0,533757.0
1.0,-62.46925735473633,-10.0352783203125,2.763331890106201,3.1739838123321533,0.0,0.0,0.0,-0.0,0.5090929269790649,0.8630349040031433,0.12585416436195374,-3.4792799949645996,-0.4578000009059906,1.892240047454834,0.0,533758.0
1.0,-29.57529640197754,-31.6326847076416,69.75602722167969,70.01431274414062,0.0,0.0,0.0,-0.0,0.5090929269790649,0.8630349040031433,0.12585416436195374,-3.4792799949645996,-0.4578000009059906,1.892240047454834,0.0,533759.0
1.0,13.414345741271973,-36.64622497558594,97.46919250488281,100.8562240600586,0.0,0.0,0.0,-0.0,0.5090929269790649,0.8630349040031433,0.12585416436195374,-3.4792799949645996,-0.4578000009059906,1.892240047454834,0.0,533760.0
1.0,49.914710998535156,-22.331716537475586,76.40873718261719,84.97408294677734,0.0,0.0,0.0,-0.0,0.5090929269790649,0.8630349040031433,0.12585416436195374,-3.4792799949645996,-0.4578000009059906,1.892240047454834,0.0,533761.0
1.0,67.371337890625,3.684157609939575,23.4169979095459,33.56587219238281,0.0,0.0,0.0,-0.0,0.5121446847915649,0.8513771891593933,0.12341277301311493,2.517899990081787,0.4120199978351593,2.1211400032043457,0.0,533762.0
1.0,60.976661682128906,27.38261604309082,-28.654438018798828,-18.69816780090332,0.0,0.0,0.0,-0.0,0.5121446847915649,0.8513771891593933,0.12341277301311493,2.517899990081787,0.4120199978351593,2.1211400032043457,0.0,533763.0
1.0,34.69290542602539,35.981204986572266,-51.334861755371094,-38.417938232421875,0.0,0.0,0.0,-0.0,0.5121446847915649,0.8513771891593933,0.12341277301311493,2.517899990081787,0.4120199978351593,2.1211400032043457,0.0,533764.0
1.0,-2.141575813293457,25.149951934814453,-39.93996810913086,-29.35433006286621,0.0,0.0,0.0,-0.0,0.5121446847915649,0.8513771891593933,0.12341277301311493,2.517899990081787,0.4120199978351593,2.1211400032043457,0.0,533765.0
1.0,-39.874900817871094,0.6657835245132446,-12.959094047546387,-24.824031829833984,0.0,0.0,0.0,-0.0,0.5121446847915649,0.8513771891593933,0.12341277301311493,2.517899990081787,0.4120199978351593,2.1211400032043457,0.0,533766.0
1.0,-65.0127944946289,-24.752504348754883,8.873183250427246,-36.97214889526367,0.0,0.0,0.0,-0.0,0.5121446847915649,0.8513771891593933,0.12341277301311493,2.517899990081787,0.4120199978351593,2.1211400032043457,0.0,533767.0
1.0,-62.56391906738281,-37.146366119384766,16.757944107055664,-40.81341552734375,0.0,0.0,0.0,-0.0,0.5121446847915649,0.8513771891593933,0.12341277301311493,2.517899990081787,0.4120199978351593,2.1211400032043457,0.0,533768.0
1.0,-32.20616912841797,-29.134838104248047,9.817672729492188,-18.957073211669922,0.0,0.0,0.0,-0.0,0.5121446847915649,0.8513771891593933,0.12341277301311493,2.517899990081787,0.4120199978351593,2.1211400032043457,0.0,533769.0
1.0,8.497756004333496,-4.846695899963379,-8.493928909301758,11.185664176940918,0.0,0.0,0.0,-0.0,0.5121446847915649,0.8513771891593933,0.12341277301311493,2.517899990081787,0.4120199978351593,2.1211400032043457,0.0,533770.0
1.0,40.154701232910156,22.436176300048828,-25.03803825378418,28.982196807861328,0.0,0.0,0.0,-0.0,0.5121446847915649,0.8513771891593933,0.12341277301311493,2.517899990081787,0.4120199978351593,2.1211400032043457,0.0,533771.0
1.0,53.44518280029297,37.85624313354492,-21.134342193603516,38.46199035644531,0.0,0.0,0.0,-0.0,0.5108629465103149,0.8392312526702881,0.12493864446878433,6.7601799964904785,-1.0681999921798706,-0.4120199978351593,0.0,533772.0
1.0,46.943599700927734,33.27332305908203,6.952969551086426,49.29754638671875,0.0,0.0,0.0,-0.0,0.5108629465103149,0.8392312526702881,0.12493864446878433,6.7601799964904785,-1.0681999921798706,-0.4120199978351593,0.0,533773.0
1.0,22.69984245300293,11.412428855895996,39.623870849609375,54.414886474609375,0.0,0.0,-0.0,-0.0,0.5108629465103149,0.8392312526702881,0.12493864446878433,6.7601799964904785,-1.0681999921798706,-0.4120199978351593,0.0,533774.0
1.0,-10.31193733215332,-16.028501510620117,53.29036331176758,39.760738372802734,0.0,0.0,-0.0,-0.0,0.5108629465103149,0.8392312526702881,0.12493864446878433,6.7601799964904785,-1.0681999921798706,-0.4120199978351593,0.0,533775.0
1.0,-36.98752212524414,-34.529571533203125,38.12812805175781,1.8028364181518555,0.0,0.0,-0.0,-0.0,0.5108629465103149,0.8392312526702881,0.12493864446878433,6.7601799964904785,-1.0681999921798706,-0.4120199978351593,0.0,533776.0
1.0,-47.59562301635742,-34.62709045410156,-2.9078309535980225,-48.32805633544922,0.0,0.0,-0.0,-0.0,0.5108629465103149,0.8392312526702881,0.12493864446878433,6.7601799964904785,-1.0681999921798706,-0.4120199978351593,0.0,533777.0
1.0,-40.975223541259766,-16.877164840698242,-54.5767936706543,-87.36170196533203,0.0,0.0,-0.0,-0.0,0.5108629465103149,0.8392312526702881,0.12493864446878433,6.7601799964904785,-1.0681999921798706,-0.4120199978351593,0.0,533778.0
1.0,-19.933595657348633,8.942148208618164,-89.3944320678711,-93.14762115478516,0.0,0.0,-0.0,-0.0,0.5108629465103149,0.8392312526702881,0.12493864446878433,6.7601799964904785,-1.0681999921798706,-0.4120199978351593,0.0,533779.0
1.0,8.076507568359375,28.911474227905273,-82.21786499023438,-62.4948844909668,0.0,0.0,-0.0,-0.0,0.5108629465103149,0.8392312526702881,0.12493864446878433,6.7601799964904785,-1.0681999921798706,-0.4120199978351593,0.0,533780.0
1.0,32.36619186401367,32.51203918457031,-29.547101974487305,-8.950774192810059,0.0,0.0,-0.0,-0.0,0.5108629465103149,0.8392312526702881,0.12493864446878433,6.7601799964904785,-1.0681999921798706,-0.4120199978351593,0.0,533781.0
1.0,43.129432678222656,18.41431427001953,44.842044830322266,49.73223114013672,0.0,0.0,-0.0,-0.0,0.5112291574478149,0.8352639675140381,0.12823453545570374,8.438779830932617,-0.4578000009059906,-5.646200180053711,0.0,533782.0
1.0,34.2227783203125,-5.538259506225586,101.52272033691406,92.73676300048828,0.0,0.0,-0.0,-0.0,0.5112291574478149,0.8352639675140381,0.12823453545570374,8.438779830932617,-0.4578000009059906,-5.646200180053711,0.0,533783.0
1.0,8.97526741027832,-26.493785858154297,107.78199768066406,97.97400665283203,0.0,0.0,-0.0,-0.0,0.5112291574478149,0.8352639675140381,0.12823453545570374,8.438779830932617,-0.4578000009059906,-5.646200180053711,0.0,533784.0
1.0,-18.526948928833008,-32.7430419921875,59.28065872192383,57.919891357421875,0.0,0.0,-0.0,-0.0,0.5112291574478149,0.8352639675140381,0.12823453545570374,8.438779830932617,-0.4578000009059906,-5.646200180053711,0.0,533785.0
1.0,-32.69585418701172,-20.267723083496094,-16.93551254272461,-9.040182113647461,0.0,0.0,-0.0,-0.0,0.5112291574478149,0.8352639675140381,0.12823453545570374,8.438779830932617,-0.4578000009059906,-5.646200180053711,0.0,533786.0
1.0,-25.427824020385742,4.483628749847412,-80.26871490478516,-66.80602264404297,0.0,0.0,-0.0,-0.0,0.5112291574478149,0.8352639675140381,0.12823453545570374,8.438779830932617,-0.4578000009059906,-5.646200180053711,0.0,533787.0
1.0,-0.36121243238449097,27.841611862182617,-97.82112884521484,-80.703125,0.0,0.0,-0.0,-0.0,0.5112291574478149,0.8352639675140381,0.12823453545570374,8.438779830932617,-0.4578000009059906,-5.646200180053711,0.0,533788.0
1.0,25.606176376342773,36.54719543457031,-62.24521255493164,-43.17768096923828,0.0,0.0,-0.0,-0.0,0.5112291574478149,0.8352639675140381,0.12823453545570374,8.438779830932617,-0.4578000009059906,-5.646200180053711,0.0,533789.0
1.0,30.703983306884766,25.420448303222656,1.3928295373916626,13.216853141784668,0.0,0.0,-0.0,-0.0,0.5112291574478149,0.8352639675140381,0.12823453545570374,8.438779830932617,-0.4578000009059906,-5.646200180053711,0.0,533790.0
1.0,7.375731468200684,0.10732001066207886,54.29999542236328,44.216636657714844,0.0,0.0,-0.0,-0.0,0.5112291574478149,0.8352639675140381,0.12823453545570374,8.438779830932617,-0.4578000009059906,-5.646200180053711,0.0,533791.0
1.0,-26.962074279785156,-25.894697189331055,72.36837768554688,36.056793212890625,0.0,0.0,-0.0,-0.0,0.5141588449478149,0.8468606472015381,0.12921109795570374,2.7010200023651123,-0.6256600022315979,-4.7458600997924805,0.0,533792.0
1.0,-42.846466064453125,-38.13465881347656,55.59608840942383,10.60992431640625,0.0,0.0,-0.0,-0.0,0.5141588449478149,0.8468606472015381,0.12921109795570374,2.7010200023651123,-0.6256600022315979,-4.7458600997924805,0.0,533793.0
1.0,-24.665802001953125,-29.396596908569336,18.627641677856445,-6.38616943359375,0.0,0.0,-0.0,-0.0,0.5141588449478149,0.8468606472015381,0.12921109795570374,2.7010200023651123,-0.6256600022315979,-4.7458600997924805,0.0,533794.0
1.0,14.784698486328125,-4.145563125610352,-21.856616973876953,-12.086421966552734,0.0,0.0,-0.0,-0.0,0.5141588449478149,0.8468606472015381,0.12921109795570374,2.7010200023651123,-0.6256600022315979,-4.7458600997924805,0.0,533795.0
1.0,46.35399627685547,23.69186019897461,-51.23259353637695,-16.61154556274414,0.0,0.0,-0.0,-0.0,0.5141588449478149,0.8468606472015381,0.12921109795570374,2.7010200023651123,-0.6256600022315979,-4.7458600997924805,0.0,533796.0
1.0,49.77180480957031,38.35908126831055,-57.0821647644043,-20.901700973510742,0.0,0.0,-0.0,-0.0,0.5141588449478149,0.8468606472015381,0.12921109795570374,2.7010200023651123,-0.6256600022315979,-4.7458600997924805,0.0,533797.0
1.0,22.689743041992188,31.447858810424805,-37.78765869140625,-20.161996841430664,0.0,0.0,-0.0,-0.0,0.5141588449478149,0.8468606472015381,0.12921109795570374,2.7010200023651123,-0.6256600022315979,-4.7458600997924805,0.0,533798.0
1.0,-22.625150680541992,6.699508190155029,-5.675704479217529,-13.181246757507324,0.0,0.0,-0.0,-0.0,0.5141588449478149,0.8468606472015381,0.12921109795570374,2.7010200023651123,-0.6256600022315979,-4.7458600997924805,0.0,533799.0
1.0,-60.433311462402344,-22.265457153320312,25.09383201599121,2.1226806640625,0.0,0.0,-0.0,-0.0,0.5141588449478149,0.8468606472015381,0.12921109795570374,2.7010200023651123,-0.6256600022315979,-4.7458600997924805,0.0,533800.0
1.0,-64.8270034790039,-39.30028533935547,44.48367691040039,23.66789436340332,0.0,0.0,-0.0,0.0,0.5141588449478149,0.8468606472015381,0.12921109795570374,2.7010200023651123,-0.6256600022315979,-4.7458600997924805,0.0,533801.0
1.0,-31.80681800842285,-34.84613800048828,43.46794891357422,36.31587219238281,0.0,0.0,-0.0,0.0,0.5125108957290649,0.8644387125968933,0.12908902764320374,0.732479989528656,-0.9613800048828125,-1.1750199794769287,0.0,533802.0
1.0,17.812639236450195,-11.478995323181152,18.860681533813477,26.332181930541992,0.0,0.0,-0.0,0.0,0.5125108957290649,0.8644387125968933,0.12908902764320374,0.732479989528656,-0.9613800048828125,-1.1750199794769287,0.0,533803.0
1.0,57.46918869018555,18.074527740478516,-16.134056091308594,1.7075891494750977,0.0,0.0,-0.0,0.0,0.5125108957290649,0.8644387125968933,0.12908902764320374,0.732479989528656,-0.9613800048828125,-1.1750199794769287,0.0,533804.0
1.0,70.1344223022461,38.14866638183594,-36.9810676574707,-15.906320571899414,0.0,0.0,-0.0,0.0,0.5125108957290649,0.8644387125968933,0.12908902764320374,0.732479989528656,-0.9613800048828125,-1.1750199794769287,0.0,533805.0
1.0,49.81048583984375,38.19719314575195,-30.792570114135742,-16.08386993408203,0.0,0.0,-0.0,0.0,0.5125108957290649,0.8644387125968933,0.12908902764320374,0.732479989528656,-0.9613800048828125,-1.1750199794769287,0.0,533806.0
1.0,4.262512683868408,18.17142105102539,-5.857664585113525,-3.8927671909332275,0.0,0.0,-0.0,0.0,0.5125108957290649,0.8644387125968933,0.12908902764320374,0.732479989528656,-0.9613800048828125,-1.1750199794769287,0.0,533807.0
1.0,-43.91088104248047,-11.604241371154785,20.957054138183594,11.02373218536377,0.0,0.0,-0.0,0.0,0.5125108957290649,0.8644387125968933,0.12908902764320374,0.732479989528656,-0.9613800048828125,-1.1750199794769287,0.0,533808.0
1.0,-69.00194549560547,-35.58757019042969,35.032833099365234,17.444469451904297,0.0,0.0,-0.0,0.0,0.5125108957290649,0.8644387125968933,0.12908902764320374,0.732479989528656,-0.9613800048828125,-1.1750199794769287,0.0,533809.0
1.0,-57.597808837890625,-40.91143798828125,28.640878677368164,8.380354881286621,0.0,0.0,-0.0,0.0,0.5125108957290649,0.8644387125968933,0.12908902764320374,0.732479989528656,-0.9613800048828125,-1.1750199794769287,0.0,533810.0
1.0,-15.457149505615234,-24.48535919189453,6.13828182220459,-8.5387544631958,0.0,0.0,-0.0,0.0,0.5125108957290649,0.8644387125968933,0.12908902764320374,0.732479989528656,-0.9613800048828125,-1.1750199794769287,0.0,533811.0
1.0,36.0855598449707,5.082844257354736,-18.439468383789062,-18.046527862548828,0.0,0.0,-0.0,0.0,0.5112901926040649,0.8768898248672485,0.13092008233070374,1.5717799663543701,-0.976639986038208,4.8679399490356445,0.0,533812.0
1.0,68.271728515625,31.68974494934082,-33.13641357421875,-18.24563980102539,0.0,0.0,-0.0,0.0,0.5112901926040649,0.8768898248672485,0.13092008233070374,1.5717799663543701,-0.976639986038208,4.8679399490356445,0.0,533813.0
1.0,59.731319427490234,40.62013626098633,-34.19804000854492,-21.7177734375,0.0,0.0,-0.0,0.0,0.5112901926040649,0.8768898248672485,0.13092008233070374,1.5717799663543701,-0.976639986038208,4.8679399490356445,0.0,533814.0
1.0,15.475580215454102,27.625478744506836,-21.262083053588867,-28.011428833007812,0.0,0.0,-0.0,0.0,0.5112901926040649,0.8768898248672485,0.13092008233070374,1.5717799663543701,-0.976639986038208,4.8679399490356445,0.0,533815.0
1.0,-34.47945785522461,0.8815321326255798,3.8856148719787598,-16.658906936645508,0.0,0.0,-0.0,0.0,0.5112901926040649,0.8768898248672485,0.13092008233070374,1.5717799663543701,-0.976639986038208,4.8679399490356445,0.0,533816.0
1.0,-60.22529983520508,-24.915828704833984,30.734128952026367,18.21766471862793,0.0,0.0,-0.0,0.0,0.5112901926040649,0.8768898248672485,0.13092008233070374,1.5717799663543701,-0.976639986038208,4.8679399490356445,0.0,533817.0
1.0,-51.77254867553711,-36.59780502319336,42.08977127075195,50.585716247558594,0.0,0.0,-0.0,0.0,0.5112901926040649,0.8768898248672485,0.13092008233070374,1.5717799663543701,-0.976639986038208,4.8679399490356445,0.0,533818.0
1.0,-18.73809242248535,-28.593494415283203,28.238155364990234,52.61619567871094,0.0,0.0,-0.0,0.0,0.5112901926040649,0.8768898248672485,0.13092008233070374,1.5717799663543701,-0.976639986038208,4.8679399490356445,0.0,533819.0
1.0,19.341825485229492,-5.300714015960693,-4.096944808959961,23.7748966217041,0.0,0.0,-0.0,0.0,0.5112901926040649,0.8768898248672485,0.13092008233070374,1.5717799663543701,-0.976639986038208,4.8679399490356445,0.0,533820.0
1.0,43.4589729309082,20.777847290039062,-35.214332580566406,-15.96621036529541,0.0,0.0,-0.0,0.0,0.5112901926040649,0.8768898248672485,0.13092008233070374,1.5717799663543701,-0.976639986038208,4.8679399490356445,0.0,533821.0
1.0,44.5895881652832,35.19538879394531,-44.149391174316406,-45.20686721801758,0.0,0.0,-0.0,0.0,0.5097032785415649,0.8639504313468933,0.12835660576820374,-1.1750199794769287,-0.3509800136089325,5.493599891662598,0.0,533822.0
1.0,25.3970947265625,29.888334274291992,-24.681432723999023,-50.115867614746094,0.0,0.0,-0.0,0.0,0.5097032785415649,0.8639504313468933,0.12835660576820374,-1.1750199794769287,-0.3509800136089325,5.493599891662598,0.0,533823.0
1.0,-5.457084655761719,7.922658920288086,8.5555419921875,-28.147518157958984,0.0,0.0,-0.0,0.0,0.5097032785415649,0.8639504313468933,0.12835660576820374,-1.1750199794769287,-0.3509800136089325,5.493599891662598,0.0,533824.0
1.0,-35.757938385009766,-18.40951156616211,33.0477180480957,9.963717460632324,0.0,0.0,-0.0,0.0,0.5097032785415649,0.8639504313468933,0.12835660576820374,-1.1750199794769287,-0.3509800136089325,5.493599891662598,0.0,533825.0
1.0,-49.62972640991211,-34.390445709228516,36.150978088378906,43.56602096557617,0.0,0.0,-0.0,0.0,0.5097032785415649,0.8639504313468933,0.12835660576820374,-1.1750199794769287,-0.3509800136089325,5.493599891662598,0.0,533826.0
1.0,-36.80039596557617,-31.308048248291016,20.035507202148438,52.33292770385742,0.0,0.0,-0.0,0.0,0.5097032785415649,0.8639504313468933,0.12835660576820374,-1.1750199794769287,-0.3509800136089325,5.493599891662598,0.0,533827.0
1.0,-3.6179163455963135,-11.23169994354248,-4.9704484939575195,28.662158966064453,0.0,0.0,-0.0,0.0,0.5097032785415649,0.8639504313468933,0.12835660576820374,-1.1750199794769287,-0.3509800136089325,5.493599891662598,0.0,533828.0
1.0,31.241477966308594,14.787712097167969,-26.667757034301758,-13.878890991210938,0.0,0.0,-0.0,0.0,0.5097032785415649,0.8639504313468933,0.12835660576820374,-1.1750199794769287,-0.3509800136089325,5.493599891662598,0.0,533829.0
1.0,50.4218635559082,32.6879768371582,-33.14383316040039,-45.63127517700195,0.0,0.0,-0.0,0.0,0.5097032785415649,0.8639504313468933,0.12835660576820374,-1.1750199794769287,-0.3509800136089325,5.493599891662598,0.0,533830.0
1.0,47.69866943359375,32.82380676269531,-17.29781723022461,-43.375213623046875,0.0,0.0,-0.0,0.0,0.5097032785415649,0.8639504313468933,0.12835660576820374,-1.1750199794769287,-0.3509800136089325,5.493599891662598,0.0,533831.0
1.0,28.35360336303711,15.186885833740234,15.230679512023926,-9.684831619262695,0.0,0.0,-0.0,0.0,0.5076280832290649,0.8428323268890381,0.12811246514320374,2.899399995803833,-0.8698199987411499,-0.7782599925994873,0.0,533832.0
1.0,1.0999398231506348,-11.052225112915039,45.4030876159668,30.09876251220703,0.0,0.0,-0.0,0.0,0.5076280832290649,0.8428323268890381,0.12811246514320374,2.899399995803833,-0.8698199987411499,-0.7782599925994873,0.0,533833.0
1.0,-27.098474502563477,-32.14878845214844,51.470211029052734,47.574623107910156,0.0,0.0,-0.0,0.0,0.5076280832290649,0.8428323268890381,0.12811246514320374,2.899399995803833,-0.8698199987411499,-0.7782599925994873,0.0,533834.0
1.0,-47.22153091430664,-36.36262893676758,24.467941284179688,32.49071502685547,0.0,0.0,-0.0,0.0,0.5076280832290649,0.8428323268890381,0.12811246514320374,2.899399995803833,-0.8698199987411499,-0.7782599925994873,0.0,533835.0
1.0,-48.15335464477539,-20.682437896728516,-22.880874633789062,-3.732539415359497,0.0,0.0,-0.0,0.0,0.5076280832290649,0.8428323268890381,0.12811246514320374,2.899399995803833,-0.8698199987411499,-0.7782599925994873,0.0,533836.0
1.0,-26.670738220214844,6.827924728393555,-63.31100845336914,-40.6454963684082,0.0,0.0,-0.0,0.0,0.5076280832290649,0.8428323268890381,0.12811246514320374,2.899399995803833,-0.8698199987411499,-0.7782599925994873,0.0,533837.0
1.0,5.267531871795654,31.18697738647461,-73.13835906982422,-56.48672103881836,0.0,0.0,-0.0,0.0,0.5076280832290649,0.8428323268890381,0.12811246514320374,2.899399995803833,-0.8698199987411499,-0.7782599925994873,0.0,533838.0
1.0,26.128860473632812,38.69637680053711,-49.237525939941406,-41.54045104980469,0.0,0.0,-0.0,0.0,0.5076280832290649,0.8428323268890381,0.12811246514320374,2.899399995803833,-0.8698199987411499,-0.7782599925994873,0.0,533839.0
1.0,22.237775802612305,24.968643188476562,-8.48735523223877,-9.650829315185547,0.0,0.0,-0.0,0.0,0.5076280832290649,0.8428323268890381,0.12811246514320374,2.899399995803833,-0.8698199987411499,-0.7782599925994873,0.0,533840.0
1.0,1.6136456727981567,-2.231236219406128,31.641286849975586,21.769779205322266,0.0,0.0,-0.0,0.0,0.5076280832290649,0.8428323268890381,0.12811246514320374,2.899399995803833,-0.8698199987411499,-0.7782599925994873,0.0,533841.0
1.0,-14.413290977478027,-27.706010818481445,60.4503288269043,46.0111083984375,0.0,0.0,-0.0,0.0,0.5107408761978149,0.8397195339202881,0.12750211358070374,4.623779773712158,-0.6714400053024292,-3.937079906463623,0.0,533842.0
1.0,-12.913946151733398,-37.80609130859375,65.885986328125,52.81541442871094,0.0,0.0,-0.0,0.0,0.5107408761978149,0.8397195339202881,0.12750211358070374,4.623779773712158,-0.6714400053024292,-3.937079906463623,0.0,533843.0
1.0,2.7481040954589844,-27.618404388427734,40.869258880615234,29.89952278137207,0.0,0.0,-0.0,0.0,0.5107408761978149,0.8397195339202881,0.12750211358070374,4.623779773712158,-0.6714400053024292,-3.937079906463623,0.0,533844.0
1.0,22.174715042114258,-2.7246057987213135,-2.7177352905273438,-14.385157585144043,0.0,0.0,-0.0,0.0,0.5107408761978149,0.8397195339202881,0.12750211358070374,4.623779773712158,-0.6714400053024292,-3.937079906463623,0.0,533845.0
1.0,36.523338317871094,23.877687454223633,-37.57121276855469,-47.4896240234375,0.0,0.0,-0.0,0.0,0.5107408761978149,0.8397195339202881,0.12750211358070374,4.623779773712158,-0.6714400053024292,-3.937079906463623,0.0,533846.0
1.0,39.07856369018555,38.022361755371094,-41.5704460144043,-40.30181121826172,0.0,0.0,-0.0,0.0,0.5107408761978149,0.8397195339202881,0.12750211358070374,4.623779773712158,-0.6714400053024292,-3.937079906463623,0.0,533847.0
1.0,25.07205581665039,31.977846145629883,-16.553451538085938,3.526003837585449,0.0,0.0,-0.0,0.0,0.5107408761978149,0.8397195339202881,0.12750211358070374,4.623779773712158,-0.6714400053024292,-3.937079906463623,0.0,533848.0
1.0,-4.864006996154785,8.746919631958008,14.472818374633789,48.24375534057617,0.0,0.0,-0.0,0.0,0.5107408761978149,0.8397195339202881,0.12750211358070374,4.623779773712158,-0.6714400053024292,-3.937079906463623,0.0,533849.0
1.0,-41.403324127197266,-19.797285079956055,27.98400115966797,56.61824417114258,0.0,0.0,-0.0,0.0,0.5107408761978149,0.8397195339202881,0.12750211358070374,4.623779773712158,-0.6714400053024292,-3.937079906463623,0.0,533850.0
1.0,-65.31763458251953,-38.642578125,17.985153198242188,22.657407760620117,0.0,0.0,-0.0,0.0,0.5107408761978149,0.8397195339202881,0.12750211358070374,4.623779773712158,-0.6714400053024292,-3.937079906463623,0.0,533851.0
1.0,-56.039955139160156,-37.1458854675293,-2.5547714233398438,-25.1981143951416,0.0,0.0,-0.0,0.0,0.5120226144790649,0.8476541042327881,0.13159145414829254,5.783539772033691,-1.5870399475097656,-3.2656400203704834,0.0,533852.0
1.0,-14.161331176757812,-15.614211082458496,-20.029756546020508,-56.31170654296875,0.0,0.0,-0.0,0.0,0.5120226144790649,0.8476541042327881,0.13159145414829254,5.783539772033691,-1.5870399475097656,-3.2656400203704834,0.0,533853.0
1.0,30.536788940429688,13.987624168395996,-33.966468811035156,-64.78589630126953,0.0,0.0,0.0,0.0,0.5120226144790649,0.8476541042327881,0.13159145414829254,5.783539772033691,-1.5870399475097656,-3.2656400203704834,0.0,533854.0
1.0,47.308231353759766,35.00441360473633,-43.08662414550781,-55.11225509643555,0.0,0.0,0.0,0.0,0.5120226144790649,0.8476541042327881,0.13159145414829254,5.783539772033691,-1.5870399475097656,-3.2656400203704834,0.0,533855.0
1.0,33.996910095214844,36.431060791015625,-33.642906188964844,-22.61758041381836,0.0,0.0,0.0,0.0,0.5120226144790649,0.8476541042327881,0.13159145414829254,5.783539772033691,-1.5870399475097656,-3.2656400203704834,0.0,533856.0
1.0,10.176309585571289,18.621944427490234,2.9733059406280518,31.69216537475586,0.0,0.0,0.0,0.0,0.5120226144790649,0.8476541042327881,0.13159145414829254,5.783539772033691,-1.5870399475097656,-3.2656400203704834,0.0,533857.0
1.0,-7.869258403778076,-8.623312950134277,50.96884536743164,82.24224853515625,0.0,0.0,0.0,0.0,0.5120226144790649,0.8476541042327881,0.13159145414829254,5.783539772033691,-1.5870399475097656,-3.2656400203704834,0.0,533858.0
1.0,-15.391868591308594,-31.19034767150879,78.7156982421875,94.10700988769531,0.0,0.0,0.0,0.0,0.5120226144790649,0.8476541042327881,0.13159145414829254,5.783539772033691,-1.5870399475097656,-3.2656400203704834,0.0,533859.0
1.0,-11.763622283935547,-36.88205337524414,65.95270538330078,57.13398742675781,0.0,0.0,0.0,0.0,0.5120226144790649,0.8476541042327881,0.13159145414829254,5.783539772033691,-1.5870399475097656,-3.2656400203704834,0.0,533860.0
1.0,2.0408859252929688,-22.18488311767578,19.475942611694336,-4.712014198303223,0.0,0.0,0.0,0.0,0.5120226144790649,0.8476541042327881,0.13159145414829254,5.783539772033691,-1.5870399475097656,-3.2656400203704834,0.0,533861.0
1.0,19.03794288635254,5.080129146575928,-35.31045150756836,-57.798667907714844,0.0,0.0,0.0,0.0,0.5106188058853149,0.8597390055656433,0.13421596586704254,3.219860076904297,-2.4721200466156006,0.7935199737548828,0.0,533862.0
1.0,26.364124298095703,29.93527603149414,-71.53977966308594,-80.02951049804688,0.0,0.0,0.0,0.0,0.5106188058853149,0.8597390055656433,0.13421596586704254,3.219860076904297,-2.4721200466156006,0.7935199737548828,0.0,533863.0
1.0,15.543309211730957,38.84038162231445,-72.21269989013672,-60.94213104248047,0.0,0.0,0.0,0.0,0.5106188058853149,0.8597390055656433,0.13421596586704254,3.219860076904297,-2.4721200466156006,0.7935199737548828,0.0,533864.0
1.0,-9.113704681396484,27.259130477905273,-37.75142288208008,-8.856973648071289,0.0,0.0,0.0,0.0,0.5106188058853149,0.8597390055656433,0.13421596586704254,3.219860076904297,-2.4721200466156006,0.7935199737548828,0.0,533865.0
1.0,-35.72610092163086,1.3796888589859009,11.433120727539062,39.19790267944336,0.0,0.0,0.0,0.0,0.5106188058853149,0.8597390055656433,0.13421596586704254,3.219860076904297,-2.4721200466156006,0.7935199737548828,0.0,533866.0
1.0,-51.476322174072266,-25.329723358154297,46.84104919433594,47.90025329589844,0.0,0.0,0.0,0.0,0.5106188058853149,0.8597390055656433,0.13421596586704254,3.219860076904297,-2.4721200466156006,0.7935199737548828,0.0,533867.0
1.0,-44.89334487915039,-38.55136489868164,52.03313446044922,21.477445602416992,0.0,0.0,0.0,0.0,0.5106188058853149,0.8597390055656433,0.13421596586704254,3.219860076904297,-2.4721200466156006,0.7935199737548828,0.0,533868.0
1.0,-13.531414985656738,-30.900402069091797,30.656360626220703,-10.287725448608398,0.0,0.0,0.0,0.0,0.5106188058853149,0.8597390055656433,0.13421596586704254,3.219860076904297,-2.4721200466156006,0.7935199737548828,0.0,533869.0
1.0,29.65694236755371,-6.323390007019043,-1.2875404357910156,-24.134275436401367,0.0,0.0,0.0,0.0,0.5106188058853149,0.8597390055656433,0.13421596586704254,3.219860076904297,-2.4721200466156006,0.7935199737548828,0.0,533870.0
1.0,62.3865852355957,21.845243453979492,-25.61924934387207,-14.905020713806152,0.0,0.0,0.0,0.0,0.5106188058853149,0.8597390055656433,0.13421596586704254,3.219860076904297,-2.4721200466156006,0.7935199737548828,0.0,533871.0
1.0,65.89795684814453,37.883941650390625,-31.28649139404297,2.6268563270568848,0.0,0.0,0.0,0.0,0.5102525949478149,0.8671242594718933,0.13458217680454254,3.4487600326538086,-2.365299940109253,6.851739883422852,0.0,533872.0
1.0,36.73069763183594,32.863861083984375,-19.60772705078125,9.624967575073242,0.0,0.0,0.0,0.0,0.5102525949478149,0.8671242594718933,0.13458217680454254,3.4487600326538086,-2.365299940109253,6.851739883422852,0.0,533873.0
1.0,-10.947625160217285,9.924294471740723,0.502217710018158,6.176136016845703,0.0,0.0,0.0,0.0,0.5102525949478149,0.8671242594718933,0.13458217680454254,3.4487600326538086,-2.365299940109253,6.851739883422852,0.0,533874.0
1.0,-55.07337951660156,-18.308897018432617,17.27252769470215,2.3857502937316895,0.0,0.0,0.0,0.0,0.5102525949478149,0.8671242594718933,0.13458217680454254,3.4487600326538086,-2.365299940109253,6.851739883422852,0.0,533875.0
1.0,-74.40420532226562,-36.784061431884766,20.322603225708008,0.11288727819919586,0.0,0.0,0.0,0.0,0.5102525949478149,0.8671242594718933,0.13458217680454254,3.4487600326538086,-2.365299940109253,6.851739883422852,0.0,533876.0
1.0,-56.361202239990234,-35.60969543457031,8.69299030303955,-2.0595648288726807,0.0,0.0,0.0,0.0,0.5102525949478149,0.8671242594718933,0.13458217680454254,3.4487600326538086,-2.365299940109253,6.851739883422852,0.0,533877.0
1.0,-8.458464622497559,-15.298574447631836,-9.820913314819336,-3.985055685043335,0.0,0.0,0.0,0.0,0.5102525949478149,0.8671242594718933,0.13458217680454254,3.4487600326538086,-2.365299940109253,6.851739883422852,0.0,533878.0
1.0,43.05195617675781,13.346601486206055,-24.48508071899414,-5.177689552307129,0.0,0.0,0.0,0.0,0.5102525949478149,0.8671242594718933,0.13458217680454254,3.4487600326538086,-2.365299940109253,6.851739883422852,0.0,533879.0
1.0,70.32347869873047,34.68238067626953,-24.544069290161133,-3.3929951190948486,0.0,0.0,0.0,0.0,0.5102525949478149,0.8671242594718933,0.13458217680454254,3.4487600326538086,-2.365299940109253,6.851739883422852,0.0,533880.0
1.0,61.457298278808594,37.060001373291016,-5.7216291427612305,2.743795394897461,0.0,0.0,0.0,0.0,0.5102525949478149,0.8671242594718933,0.13458217680454254,3.4487600326538086,-2.365299940109253,6.851739883422852,0.0,533881.0
1.0,26.036304473876953,19.761491775512695,24.166488647460938,13.02646255493164,0.0,0.0,0.0,0.0,0.5095201730728149,0.8626686930656433,0.13293422758579254,2.243220090866089,-2.426340103149414,6.470240116119385,0.0,533882.0
1.0,-15.689258575439453,-7.549126148223877,47.601322174072266,24.541322708129883,0.0,0.0,0.0,-0.0,0.5095201730728149,0.8626686930656433,0.13293422758579254,2.243220090866089,-2.426340103149414,6.470240116119385,0.0,533883.0
1.0,-43.829715728759766,-30.377147674560547,48.91698455810547,29.25896453857422,0.0,0.0,0.0,-0.0,0.5095201730728149,0.8626686930656433,0.13293422758579254,2.243220090866089,-2.426340103149414,6.470240116119385,0.0,533884.0
1.0,-44.22443771362305,-36.25423049926758,26.727359771728516,21.37244415283203,0.0,0.0,0.0,-0.0,0.5095201730728149,0.8626686930656433,0.13293422758579254,2.243220090866089,-2.426340103149414,6.470240116119385,0.0,533885.0
1.0,-19.882247924804688,-21.84018325805664,-10.065342903137207,-1.2145053148269653,0.0,0.0,0.0,-0.0,0.5095201730728149,0.8626686930656433,0.13293422758579254,2.243220090866089,-2.426340103149414,6.470240116119385,0.0,533886.0
