CH_1,CH_2,CH_3,CH_4,CH_5,CH_6,CH_7,CH_8,CH_9,CH_10,CH_11,CH_12,CH_13,CH_14,CH_15,CH_16,CH_17
1.0,-13.749959945678711,-18.38970184326172,45.32583999633789,38.79407501220703,0.0,0.0,-0.0,0.0,0.2838737964630127,0.9125342965126038,-0.12689176201820374,6.332900047302246,5.890359878540039,-1.2970999479293823,0.0,543368.0
1.0,-29.920883178710938,-39.91376876831055,52.323883056640625,72.41558837890625,0.0,0.0,-0.0,0.0,0.2838737964630127,0.9125342965126038,-0.12689176201820374,6.332900047302246,5.890359878540039,-1.2970999479293823,0.0,543369.0
1.0,-28.068931579589844,-39.70921325683594,28.71693992614746,71.69812774658203,0.0,0.0,-0.0,0.0,0.2838737964630127,0.9125342965126038,-0.12689176201820374,6.332900047302246,5.890359878540039,-1.2970999479293823,0.0,543370.0
1.0,-6.7868547439575195,-17.773319244384766,-16.917510986328125,28.211326599121094,0.0,0.0,-0.0,0.0,0.2838737964630127,0.9125342965126038,-0.12689176201820374,6.332900047302246,5.890359878540039,-1.2970999479293823,0.0,543371.0
1.0,16.240745544433594,13.857874870300293,-52.3939094543457,-36.74854278564453,0.0,0.0,-0.0,0.0,0.2841179370880127,0.927976131439209,-0.12640348076820374,3.8607800006866455,2.517899990081787,-1.40392005443573,0.0,543372.0
1.0,25.752504348754883,37.47627639770508,-55.11562728881836,-84.2112808227539,0.0,0.0,-0.0,0.0,0.2841179370880127,0.927976131439209,-0.12640348076820374,3.8607800006866455,2.517899990081787,-1.40392005443573,0.0,543373.0
1.0,17.7623233795166,39.993507385253906,-24.68364715576172,-85.13162994384766,0.0,0.0,-0.0,0.0,0.2841179370880127,0.927976131439209,-0.12640348076820374,3.8607800006866455,2.517899990081787,-1.40392005443573,0.0,543374.0
1.0,1.1216922998428345,20.617721557617188,23.228357315063477,-42.303016662597656,0.0,0.0,-0.0,0.0,0.2841179370880127,0.927976131439209,-0.12640348076820374,3.8607800006866455,2.517899990081787,-1.40392005443573,0.0,543375.0
1.0,-9.640989303588867,-9.813411712646484,62.29645538330078,15.412924766540527,0.0,0.0,-0.0,0.0,0.2841179370880127,0.927976131439209,-0.12640348076820374,3.8607800006866455,2.517899990081787,-1.40392005443573,0.0,543376.0
1.0,-10.31284236907959,-35.081443786621094,68.36589050292969,57.4020881652832,0.0,0.0,-0.0,0.0,0.2841179370880127,0.927976131439209,-0.12640348076820374,3.8607800006866455,2.517899990081787,-1.40392005443573,0.0,543377.0
1.0,-5.672158718109131,-41.49771499633789,33.23907470703125,66.2492904663086,0.0,0.0,-0.0,0.0,0.2841179370880127,0.927976131439209,-0.12640348076820374,3.8607800006866455,2.517899990081787,-1.40392005443573,0.0,543378.0
1.0,1.178926944732666,-25.260950088500977,-25.847131729125977,39.64789962768555,0.0,0.0,-0.0,0.0,0.2841179370880127,0.927976131439209,-0.12640348076820374,3.8607800006866455,2.517899990081787,-1.40392005443573,0.0,543379.0
1.0,7.436469554901123,5.003505229949951,-71.83183288574219,-7.95696496963501,0.0,0.0,-0.0,0.0,0.2841179370880127,0.927976131439209,-0.12640348076820374,3.8607800006866455,2.517899990081787,-1.40392005443573,0.0,543380.0
1.0,8.777021408081055,32.59487533569336,-78.345703125,-46.58303451538086,0.0,0.0,-0.0,0.0,0.2841179370880127,0.927976131439209,-0.12640348076820374,3.8607800006866455,2.517899990081787,-1.40392005443573,0.0,543381.0
1.0,5.586586952209473,42.2327995300293,-47.81085968017578,-50.557926177978516,0.0,0.0,-0.0,0.0,0.2859489619731903,0.942136287689209,-0.12799039483070374,1.9380199909210205,0.1068200021982193,2.655240058898926,0.0,543382.0
1.0,2.3831207752227783,28.912961959838867,2.201812982559204,-20.872121810913086,0.0,0.0,-0.0,0.0,0.2859489619731903,0.942136287689209,-0.12799039483070374,1.9380199909210205,0.1068200021982193,2.655240058898926,0.0,543383.0
1.0,-0.8090841174125671,0.020914247259497643,52.092063903808594,20.655075073242188,0.0,0.0,-0.0,0.0,0.2859489619731903,0.942136287689209,-0.12799039483070374,1.9380199909210205,0.1068200021982193,2.655240058898926,0.0,543384.0
1.0,-5.9726386070251465,-28.935651779174805,79.3484115600586,49.848819732666016,0.0,0.0,-0.0,0.0,0.2859489619731903,0.942136287689209,-0.12799039483070374,1.9380199909210205,0.1068200021982193,2.655240058898926,0.0,543385.0
1.0,-10.856575965881348,-42.289512634277344,66.64262390136719,50.88417434692383,0.0,0.0,-0.0,0.0,0.2859489619731903,0.942136287689209,-0.12799039483070374,1.9380199909210205,0.1068200021982193,2.655240058898926,0.0,543386.0
1.0,-13.660456657409668,-32.8497200012207,20.03272819519043,24.99918556213379,0.0,0.0,-0.0,0.0,0.2859489619731903,0.942136287689209,-0.12799039483070374,1.9380199909210205,0.1068200021982193,2.655240058898926,0.0,543387.0
1.0,-11.874756813049316,-5.7878217697143555,-34.953155517578125,-12.324317932128906,0.0,0.0,-0.0,0.0,0.2859489619731903,0.942136287689209,-0.12799039483070374,1.9380199909210205,0.1068200021982193,2.655240058898926,0.0,543388.0
1.0,-1.079358458518982,24.295053482055664,-72.00990295410156,-44.82228088378906,0.0,0.0,-0.0,0.0,0.2859489619731903,0.942136287689209,-0.12799039483070374,1.9380199909210205,0.1068200021982193,2.655240058898926,0.0,543389.0
1.0,14.924195289611816,41.08388137817383,-72.0366439819336,-60.06428146362305,0.0,0.0,-0.0,0.0,0.2859489619731903,0.942136287689209,-0.12799039483070374,1.9380199909210205,0.1068200021982193,2.655240058898926,0.0,543390.0
1.0,25.60504722595215,35.5932502746582,-33.6092529296875,-49.20018768310547,0.0,0.0,-0.0,0.0,0.2859489619731903,0.942136287689209,-0.12799039483070374,1.9380199909210205,0.1068200021982193,2.655240058898926,0.0,543391.0
1.0,22.90201759338379,10.88796615600586,21.0200252532959,-11.873825073242188,0.0,0.0,-0.0,0.0,0.2838127613067627,0.938046932220459,-0.13128627836704254,10.743040084838867,-0.6714400053024292,5.417300224304199,0.0,543392.0
1.0,5.185705184936523,-19.910512924194336,62.50001525878906,37.31582260131836,0.0,0.0,-0.0,0.0,0.2838127613067627,0.938046932220459,-0.13128627836704254,10.743040084838867,-0.6714400053024292,5.417300224304199,0.0,543393.0
1.0,-18.308799743652344,-40.02912139892578,72.66860961914062,70.69682312011719,0.0,0.0,-0.0,0.0,0.2838127613067627,0.938046932220459,-0.13128627836704254,10.743040084838867,-0.6714400053024292,5.417300224304199,0.0,543394.0
1.0,-31.76390266418457,-37.9262809753418,48.22736358642578,64.10257720947266,0.0,0.0,-0.0,0.0,0.2838127613067627,0.938046932220459,-0.13128627836704254,10.743040084838867,-0.6714400053024292,5.417300224304199,0.0,543395.0
1.0,-25.615360260009766,-14.4435453414917,-1.9507089853286743,17.72233009338379,0.0,0.0,-0.0,0.0,0.2838127613067627,0.938046932220459,-0.13128627836704254,10.743040084838867,-0.6714400053024292,5.417300224304199,0.0,543396.0
1.0,-2.667106866836548,17.292078018188477,-57.25059127807617,-39.28606414794922,0.0,0.0,-0.0,0.0,0.2838127613067627,0.938046932220459,-0.13128627836704254,10.743040084838867,-0.6714400053024292,5.417300224304199,0.0,543397.0
1.0,23.732900619506836,39.399269104003906,-87.276611328125,-70.6272964477539,0.0,0.0,-0.0,0.0,0.2838127613067627,0.938046932220459,-0.13128627836704254,10.743040084838867,-0.6714400053024292,5.417300224304199,0.0,543398.0
1.0,34.50011444091797,39.72816467285156,-66.45988464355469,-60.23481369018555,0.0,0.0,-0.0,0.0,0.2838127613067627,0.938046932220459,-0.13128627836704254,10.743040084838867,-0.6714400053024292,5.417300224304199,0.0,543399.0
1.0,16.63631820678711,18.525527954101562,1.9266833066940308,-17.007692337036133,0.0,0.0,-0.0,0.0,0.2838127613067627,0.938046932220459,-0.13128627836704254,10.743040084838867,-0.6714400053024292,5.417300224304199,0.0,543400.0
1.0,-20.301532745361328,-12.787182807922363,76.84236145019531,35.68279266357422,0.0,0.0,-0.0,0.0,0.2838127613067627,0.938046932220459,-0.13128627836704254,10.743040084838867,-0.6714400053024292,5.417300224304199,0.0,543401.0
1.0,-45.10372543334961,-37.91314697265625,104.01638793945312,69.86065673828125,0.0,0.0,-0.0,0.0,0.2900383174419403,0.937375545501709,-0.14099085330963135,14.298620223999023,0.1983799934387207,7.111159801483154,0.0,543402.0
1.0,-32.83301544189453,-43.453826904296875,61.61140823364258,65.48265838623047,0.0,0.0,-0.0,0.0,0.2900383174419403,0.937375545501709,-0.14099085330963135,14.298620223999023,0.1983799934387207,7.111159801483154,0.0,543403.0
1.0,9.405769348144531,-25.80245590209961,-18.018327713012695,23.814119338989258,0.0,0.0,-0.0,0.0,0.2900383174419403,0.937375545501709,-0.14099085330963135,14.298620223999023,0.1983799934387207,7.111159801483154,0.0,543404.0
1.0,46.77174758911133,6.3471598625183105,-77.67670440673828,-32.13425064086914,0.0,0.0,-0.0,0.0,0.2900383174419403,0.937375545501709,-0.14099085330963135,14.298620223999023,0.1983799934387207,7.111159801483154,0.0,543405.0
1.0,49.277122497558594,35.870765686035156,-83.13745880126953,-72.05503845214844,0.0,0.0,-0.0,0.0,0.2900383174419403,0.937375545501709,-0.14099085330963135,14.298620223999023,0.1983799934387207,7.111159801483154,0.0,543406.0
1.0,21.31509780883789,46.59987258911133,-44.4649658203125,-74.71958923339844,0.0,0.0,-0.0,0.0,0.2900383174419403,0.937375545501709,-0.14099085330963135,14.298620223999023,0.1983799934387207,7.111159801483154,0.0,543407.0
1.0,-11.995331764221191,32.89303970336914,5.8210248947143555,-37.98219680786133,0.0,0.0,-0.0,0.0,0.2900383174419403,0.937375545501709,-0.14099085330963135,14.298620223999023,0.1983799934387207,7.111159801483154,0.0,543408.0
1.0,-34.48884963989258,2.344109058380127,44.04509735107422,19.859508514404297,0.0,0.0,-0.0,0.0,0.2900383174419403,0.937375545501709,-0.14099085330963135,14.298620223999023,0.1983799934387207,7.111159801483154,0.0,543409.0
1.0,-41.981040954589844,-28.95809555053711,56.591407775878906,69.44375610351562,0.0,0.0,-0.0,0.0,0.2900383174419403,0.937375545501709,-0.14099085330963135,14.298620223999023,0.1983799934387207,7.111159801483154,0.0,543410.0
1.0,-36.70587921142578,-44.68251419067383,37.65808868408203,84.55162048339844,0.0,0.0,-0.0,0.0,0.2900383174419403,0.937375545501709,-0.14099085330963135,14.298620223999023,0.1983799934387207,7.111159801483154,0.0,543411.0
1.0,-21.433130264282227,-36.58842086791992,-0.7296969890594482,54.2878303527832,0.0,0.0,0.0,0.0,0.2977897524833679,0.935483455657959,-0.14770470559597015,10.208939552307129,1.9380199909210205,5.676720142364502,0.0,543412.0
1.0,5.302244186401367,-8.999354362487793,-34.075843811035156,-7.804508209228516,0.0,0.0,0.0,0.0,0.2977897524833679,0.935483455657959,-0.14770470559597015,10.208939552307129,1.9380199909210205,5.676720142364502,0.0,543413.0
1.0,38.92831802368164,23.12282371520996,-45.89664840698242,-66.34677124023438,0.0,0.0,0.0,0.0,0.2977897524833679,0.935483455657959,-0.14770470559597015,10.208939552307129,1.9380199909210205,5.676720142364502,0.0,543414.0
1.0,61.17474365234375,41.9826774597168,-39.11512756347656,-86.4080810546875,0.0,0.0,0.0,0.0,0.2977897524833679,0.935483455657959,-0.14770470559597015,10.208939552307129,1.9380199909210205,5.676720142364502,0.0,543415.0
1.0,54.88804626464844,37.26413345336914,-21.881330490112305,-59.69401168823242,0.0,0.0,0.0,0.0,0.2977897524833679,0.935483455657959,-0.14770470559597015,10.208939552307129,1.9380199909210205,5.676720142364502,0.0,543416.0
1.0,20.579526901245117,12.026586532592773,8.426960945129395,-6.004571437835693,0.0,0.0,0.0,0.0,0.2977897524833679,0.935483455657959,-0.14770470559597015,10.208939552307129,1.9380199909210205,5.676720142364502,0.0,543417.0
1.0,-25.389684677124023,-19.64424705505371,49.34011459350586,46.48847961425781,0.0,0.0,0.0,0.0,0.2977897524833679,0.935483455657959,-0.14770470559597015,10.208939552307129,1.9380199909210205,5.676720142364502,0.0,543418.0
1.0,-59.036598205566406,-40.316368103027344,75.84203338623047,74.94117736816406,0.0,0.0,0.0,0.0,0.2977897524833679,0.935483455657959,-0.14770470559597015,10.208939552307129,1.9380199909210205,5.676720142364502,0.0,543419.0
1.0,-60.900081634521484,-38.541934967041016,61.04557418823242,66.41962432861328,0.0,0.0,0.0,0.0,0.2977897524833679,0.935483455657959,-0.14770470559597015,10.208939552307129,1.9380199909210205,5.676720142364502,0.0,543420.0
1.0,-30.237056732177734,-15.279834747314453,8.040852546691895,22.5350284576416,0.0,0.0,0.0,0.0,0.2977897524833679,0.935483455657959,-0.14770470559597015,10.208939552307129,1.9380199909210205,5.676720142364502,0.0,543421.0
1.0,15.625946044921875,16.638042449951172,-51.84476089477539,-35.12933349609375,0.0,0.0,0.0,0.0,0.3077384829521179,0.935666561126709,-0.15179404616355896,2.6247200965881348,4.150720119476318,2.2279601097106934,0.0,543422.0
1.0,51.86592483520508,39.37020492553711,-84.57357788085938,-71.86906433105469,0.0,0.0,0.0,0.0,0.3077384829521179,0.935666561126709,-0.15179404616355896,2.6247200965881348,4.150720119476318,2.2279601097106934,0.0,543423.0
1.0,56.83301544189453,40.2970085144043,-69.3105239868164,-66.12918090820312,0.0,0.0,0.0,0.0,0.3077384829521179,0.935666561126709,-0.15179404616355896,2.6247200965881348,4.150720119476318,2.2279601097106934,0.0,543424.0
1.0,24.698646545410156,19.338285446166992,-8.198719024658203,-23.366287231445312,0.0,0.0,0.0,0.0,0.3077384829521179,0.935666561126709,-0.15179404616355896,2.6247200965881348,4.150720119476318,2.2279601097106934,0.0,543425.0
1.0,-26.974985122680664,-11.970544815063477,65.49066162109375,35.60234451293945,0.0,0.0,0.0,0.0,0.3077384829521179,0.935666561126709,-0.15179404616355896,2.6247200965881348,4.150720119476318,2.2279601097106934,0.0,543426.0
1.0,-66.13275909423828,-37.085636138916016,101.60997009277344,81.74545288085938,0.0,0.0,0.0,0.0,0.3077384829521179,0.935666561126709,-0.15179404616355896,2.6247200965881348,4.150720119476318,2.2279601097106934,0.0,543427.0
1.0,-68.43090057373047,-42.6771125793457,71.894287109375,83.89256286621094,0.0,0.0,0.0,0.0,0.3077384829521179,0.935666561126709,-0.15179404616355896,2.6247200965881348,4.150720119476318,2.2279601097106934,0.0,543428.0
1.0,-30.8696346282959,-25.51357650756836,-4.534344673156738,32.11359405517578,0.0,0.0,0.0,0.0,0.3077384829521179,0.935666561126709,-0.15179404616355896,2.6247200965881348,4.150720119476318,2.2279601097106934,0.0,543429.0
1.0,28.70016098022461,5.6199445724487305,-79.10093688964844,-45.23722457885742,0.0,0.0,0.0,0.0,0.3077384829521179,0.935666561126709,-0.15179404616355896,2.6247200965881348,4.150720119476318,2.2279601097106934,0.0,543430.0
1.0,77.22020721435547,33.96349334716797,-111.14827728271484,-98.2637939453125,0.0,0.0,0.0,0.0,0.3077384829521179,0.935666561126709,-0.15179404616355896,2.6247200965881348,4.150720119476318,2.2279601097106934,0.0,543431.0
1.0,85.5627212524414,43.7913703918457,-87.92220306396484,-93.98638916015625,0.0,0.0,0.0,0.0,0.3081046938896179,0.933225154876709,-0.15167197585105896,1.6785999536514282,5.890359878540039,0.2136400043964386,0.0,543432.0
1.0,49.48836135864258,29.831716537475586,-20.89413070678711,-38.174644470214844,0.0,0.0,0.0,0.0,0.3081046938896179,0.933225154876709,-0.15167197585105896,1.6785999536514282,5.890359878540039,0.2136400043964386,0.0,543433.0
1.0,-8.777692794799805,-0.09506338834762573,59.888736724853516,34.99683380126953,0.0,0.0,0.0,0.0,0.3081046938896179,0.933225154876709,-0.15167197585105896,1.6785999536514282,5.890359878540039,0.2136400043964386,0.0,543434.0
1.0,-57.19624710083008,-29.926448822021484,111.06729888916016,86.51835632324219,0.0,0.0,0.0,0.0,0.3081046938896179,0.933225154876709,-0.15167197585105896,1.6785999536514282,5.890359878540039,0.2136400043964386,0.0,543435.0
1.0,-74.84461975097656,-43.66016387939453,102.53047180175781,91.47300720214844,0.0,0.0,0.0,0.0,0.3081046938896179,0.933225154876709,-0.15167197585105896,1.6785999536514282,5.890359878540039,0.2136400043964386,0.0,543436.0
1.0,-56.146690368652344,-33.75041198730469,41.260128021240234,48.20411682128906,0.0,0.0,0.0,0.0,0.3081046938896179,0.933225154876709,-0.15167197585105896,1.6785999536514282,5.890359878540039,0.2136400043964386,0.0,543437.0
1.0,-10.554112434387207,-5.318974018096924,-36.71331024169922,-20.360774993896484,0.0,0.0,0.0,0.0,0.3081046938896179,0.933225154876709,-0.15167197585105896,1.6785999536514282,5.890359878540039,0.2136400043964386,0.0,543438.0
1.0,33.90608215332031,26.28598976135254,-89.37171936035156,-75.46088409423828,0.0,0.0,0.0,0.0,0.3081046938896179,0.933225154876709,-0.15167197585105896,1.6785999536514282,5.890359878540039,0.2136400043964386,0.0,543439.0
1.0,47.89685821533203,43.60397720336914,-89.0185775756836,-85.6293716430664,0.0,0.0,0.0,0.0,0.3081046938896179,0.933225154876709,-0.15167197585105896,1.6785999536514282,5.890359878540039,0.2136400043964386,0.0,543440.0
1.0,27.137895584106445,37.197425842285156,-37.345436096191406,-48.07939529418945,0.0,0.0,0.0,-0.0,0.3081046938896179,0.933225154876709,-0.15167197585105896,1.6785999536514282,5.890359878540039,0.2136400043964386,0.0,543441.0
1.0,-4.497080326080322,10.890286445617676,31.239042282104492,12.375166893005371,0.0,0.0,0.0,-0.0,0.3012077212333679,0.934812068939209,-0.14569054543972015,4.761119842529297,5.173140048980713,1.40392005443573,0.0,543442.0
1.0,-18.958168029785156,-21.07442855834961,70.89153289794922,62.28976058959961,0.0,0.0,0.0,-0.0,0.3012077212333679,0.934812068939209,-0.14569054543972015,4.761119842529297,5.173140048980713,1.40392005443573,0.0,543443.0
1.0,-10.4052734375,-41.55596160888672,59.986942291259766,78.08101654052734,0.0,0.0,0.0,-0.0,0.3012077212333679,0.934812068939209,-0.14569054543972015,4.761119842529297,5.173140048980713,1.40392005443573,0.0,543444.0
1.0,6.736680030822754,-39.36745834350586,13.772869110107422,53.93067932128906,0.0,0.0,0.0,-0.0,0.3012077212333679,0.934812068939209,-0.14569054543972015,4.761119842529297,5.173140048980713,1.40392005443573,0.0,543445.0
1.0,19.026371002197266,-15.563448905944824,-35.465763092041016,1.6664884090423584,0.0,0.0,0.0,-0.0,0.3012077212333679,0.934812068939209,-0.14569054543972015,4.761119842529297,5.173140048980713,1.40392005443573,0.0,543446.0
1.0,22.641590118408203,16.85007095336914,-63.011253356933594,-52.43781661987305,0.0,0.0,0.0,-0.0,0.3012077212333679,0.934812068939209,-0.14569054543972015,4.761119842529297,5.173140048980713,1.40392005443573,0.0,543447.0
1.0,17.938737869262695,39.68599319458008,-61.61920928955078,-79.05606079101562,0.0,0.0,0.0,-0.0,0.3012077212333679,0.934812068939209,-0.14569054543972015,4.761119842529297,5.173140048980713,1.40392005443573,0.0,543448.0
1.0,4.542135238647461,40.03819274902344,-35.180728912353516,-63.59607696533203,0.0,0.0,0.0,-0.0,0.3012077212333679,0.934812068939209,-0.14569054543972015,4.761119842529297,5.173140048980713,1.40392005443573,0.0,543449.0
1.0,-18.782560348510742,17.974016189575195,11.156769752502441,-14.151196479797363,0.0,0.0,0.0,-0.0,0.3012077212333679,0.934812068939209,-0.14569054543972015,4.761119842529297,5.173140048980713,1.40392005443573,0.0,543450.0
1.0,-48.211456298828125,-14.22085952758789,67.30511474609375,44.3998908996582,0.0,0.0,0.0,-0.0,0.3012077212333679,0.934812068939209,-0.14569054543972015,4.761119842529297,5.173140048980713,1.40392005443573,0.0,543451.0
1.0,-66.4509048461914,-39.08879852294922,108.02555084228516,81.7518081665039,0.0,0.0,0.0,-0.0,0.2998039126396179,0.941281795501709,-0.14038050174713135,3.1588199138641357,3.9523398876190186,3.5403199195861816,0.0,543452.0
1.0,-51.65751266479492,-43.047916412353516,103.15096282958984,76.884765625,0.0,0.0,0.0,-0.0,0.2998039126396179,0.941281795501709,-0.14038050174713135,3.1588199138641357,3.9523398876190186,3.5403199195861816,0.0,543453.0
1.0,-2.2824997901916504,-23.77079963684082,43.302188873291016,31.57292366027832,0.0,0.0,0.0,-0.0,0.2998039126396179,0.941281795501709,-0.14038050174713135,3.1588199138641357,3.9523398876190186,3.5403199195861816,0.0,543454.0
1.0,57.18610763549805,8.502023696899414,-49.152984619140625,-30.782556533813477,0.0,0.0,0.0,-0.0,0.2998039126396179,0.941281795501709,-0.14038050174713135,3.1588199138641357,3.9523398876190186,3.5403199195861816,0.0,543455.0
1.0,94.46663665771484,36.499359130859375,-128.01722717285156,-78.40445709228516,0.0,0.0,0.0,-0.0,0.2998039126396179,0.941281795501709,-0.14038050174713135,3.1588199138641357,3.9523398876190186,3.5403199195861816,0.0,543456.0
1.0,88.76380157470703,45.265316009521484,-147.26918029785156,-85.5855712890625,0.0,0.0,0.0,-0.0,0.2998039126396179,0.941281795501709,-0.14038050174713135,3.1588199138641357,3.9523398876190186,3.5403199195861816,0.0,543457.0
1.0,39.29059982299805,30.304777145385742,-92.47527313232422,-46.680992126464844,0.0,0.0,0.0,-0.0,0.2998039126396179,0.941281795501709,-0.14038050174713135,3.1588199138641357,3.9523398876190186,3.5403199195861816,0.0,543458.0
1.0,-32.87588119506836,-0.3324277400970459,6.694510459899902,17.220958709716797,0.0,0.0,0.0,-0.0,0.2998039126396179,0.941281795501709,-0.14038050174713135,3.1588199138641357,3.9523398876190186,3.5403199195861816,0.0,543459.0
1.0,-88.71417999267578,-30.37982177734375,95.01607513427734,68.02809143066406,0.0,0.0,0.0,-0.0,0.2998039126396179,0.941281795501709,-0.14038050174713135,3.1588199138641357,3.9523398876190186,3.5403199195861816,0.0,543460.0
1.0,-95.60365295410156,-43.75028610229492,127.99397277832031,76.63239288330078,0.0,0.0,0.0,-0.0,0.2998039126396179,0.941281795501709,-0.14038050174713135,3.1588199138641357,3.9523398876190186,3.5403199195861816,0.0,543461.0
1.0,-54.34688186645508,-33.39797592163086,96.0025405883789,42.96677780151367,0.0,0.0,0.0,-0.0,0.2990104556083679,0.938107967376709,-0.13537563383579254,2.0906200408935547,2.365299940109253,4.135459899902344,0.0,543462.0
1.0,6.728313446044922,-5.137484550476074,22.424692153930664,-11.481939315795898,0.0,0.0,0.0,-0.0,0.2990104556083679,0.938107967376709,-0.13537563383579254,2.0906200408935547,2.365299940109253,4.135459899902344,0.0,543463.0
1.0,55.645835876464844,25.702800750732422,-50.791996002197266,-59.150691986083984,0.0,0.0,0.0,-0.0,0.2990104556083679,0.938107967376709,-0.13537563383579254,2.0906200408935547,2.365299940109253,4.135459899902344,0.0,543464.0
1.0,68.27952575683594,42.49111557006836,-83.38153076171875,-72.41903686523438,0.0,0.0,0.0,-0.0,0.2990104556083679,0.938107967376709,-0.13537563383579254,2.0906200408935547,2.365299940109253,4.135459899902344,0.0,543465.0
1.0,38.77690887451172,36.39958953857422,-61.80617141723633,-38.3978157043457,0.0,0.0,0.0,-0.0,0.2990104556083679,0.938107967376709,-0.13537563383579254,2.0906200408935547,2.365299940109253,4.135459899902344,0.0,543466.0
1.0,-8.916277885437012,10.974357604980469,-8.17856216430664,23.26420021057129,0.0,0.0,0.0,-0.0,0.2990104556083679,0.938107967376709,-0.13537563383579254,2.0906200408935547,2.365299940109253,4.135459899902344,0.0,543467.0
1.0,-38.53305435180664,-20.287338256835938,38.695701599121094,72.05658721923828,0.0,0.0,0.0,-0.0,0.2990104556083679,0.938107967376709,-0.13537563383579254,2.0906200408935547,2.365299940109253,4.135459899902344,0.0,543468.0
1.0,-33.502845764160156,-40.92943572998047,49.13630294799805,77.98890686035156,0.0,0.0,0.0,-0.0,0.2990104556083679,0.938107967376709,-0.13537563383579254,2.0906200408935547,2.365299940109253,4.135459899902344,0.0,543469.0
1.0,-3.361325263977051,-39.965633392333984,20.15610694885254,37.488216400146484,0.0,0.0,0.0,-0.0,0.2990104556083679,0.938107967376709,-0.13537563383579254,2.0906200408935547,2.365299940109253,4.135459899902344,0.0,543470.0
1.0,29.91159439086914,-17.840730667114258,-23.903329849243164,-27.834918975830078,0.0,0.0,0.0,-0.0,0.2990104556083679,0.938107967376709,-0.13537563383579254,2.0906200408935547,2.365299940109253,4.135459899902344,0.0,543471.0
1.0,45.247406005859375,13.605788230895996,-52.766357421875,-80.402099609375,0.0,0.0,0.0,-0.0,0.2990714907646179,0.929685115814209,-0.13305629789829254,2.6705000400543213,0.9613800048828125,1.5870399475097656,0.0,543472.0
1.0,33.43889236450195,37.247135162353516,-49.42280960083008,-88.7466049194336,0.0,0.0,0.0,-0.0,0.2990714907646179,0.929685115814209,-0.13305629789829254,2.6705000400543213,0.9613800048828125,1.5870399475097656,0.0,543473.0
1.0,2.276780843734741,40.40604019165039,-12.04822063446045,-50.38220977783203,0.0,0.0,0.0,-0.0,0.2990714907646179,0.929685115814209,-0.13305629789829254,2.6705000400543213,0.9613800048828125,1.5870399475097656,0.0,543474.0
1.0,-33.08051681518555,22.06455421447754,45.551170349121094,9.99964427947998,0.0,0.0,0.0,-0.0,0.2990714907646179,0.929685115814209,-0.13305629789829254,2.6705000400543213,0.9613800048828125,1.5870399475097656,0.0,543475.0
1.0,-61.36337661743164,-7.546856880187988,93.23638153076172,62.181068420410156,0.0,0.0,0.0,-0.0,0.2990714907646179,0.929685115814209,-0.13305629789829254,2.6705000400543213,0.9613800048828125,1.5870399475097656,0.0,543476.0
1.0,-69.58057403564453,-32.68464279174805,96.41708374023438,84.60475158691406,0.0,0.0,0.0,-0.0,0.2990714907646179,0.929685115814209,-0.13305629789829254,2.6705000400543213,0.9613800048828125,1.5870399475097656,0.0,543477.0
1.0,-43.60651779174805,-39.92439270019531,39.44062042236328,69.40805053710938,0.0,0.0,0.0,-0.0,0.2990714907646179,0.929685115814209,-0.13305629789829254,2.6705000400543213,0.9613800048828125,1.5870399475097656,0.0,543478.0
1.0,12.817968368530273,-25.408571243286133,-55.27948760986328,24.703847885131836,0.0,0.0,0.0,-0.0,0.2990714907646179,0.929685115814209,-0.13305629789829254,2.6705000400543213,0.9613800048828125,1.5870399475097656,0.0,543479.0
1.0,71.8623046875,2.9322268962860107,-133.8041534423828,-31.04320526123047,0.0,0.0,0.0,-0.0,0.2990714907646179,0.929685115814209,-0.13305629789829254,2.6705000400543213,0.9613800048828125,1.5870399475097656,0.0,543480.0
1.0,97.75406646728516,29.45718765258789,-145.13294982910156,-73.60803985595703,0.0,0.0,0.0,-0.0,0.2990714907646179,0.929685115814209,-0.13305629789829254,2.6705000400543213,0.9613800048828125,1.5870399475097656,0.0,543481.0
1.0,74.2090835571289,39.42710494995117,-80.91497802734375,-79.90530395507812,0.0,0.0,0.0,-0.0,0.3007804751396179,0.9182105660438538,-0.13580287992954254,8.652420043945312,-0.045779999345541,-1.5717799663543701,0.0,543482.0
1.0,18.566904067993164,27.681642532348633,18.969133377075195,-44.56618881225586,0.0,0.0,0.0,-0.0,0.3007804751396179,0.9182105660438538,-0.13580287992954254,8.652420043945312,-0.045779999345541,-1.5717799663543701,0.0,543483.0
1.0,-39.28215408325195,1.0849055051803589,103.24168395996094,14.96695327758789,0.0,0.0,0.0,-0.0,0.3007804751396179,0.9182105660438538,-0.13580287992954254,8.652420043945312,-0.045779999345541,-1.5717799663543701,0.0,543484.0
1.0,-76.22078704833984,-25.84545135498047,137.55052185058594,66.72599792480469,0.0,0.0,0.0,-0.0,0.3007804751396179,0.9182105660438538,-0.13580287992954254,8.652420043945312,-0.045779999345541,-1.5717799663543701,0.0,543485.0
1.0,-76.79600524902344,-38.4602165222168,111.42976379394531,77.904296875,0.0,0.0,0.0,-0.0,0.3007804751396179,0.9182105660438538,-0.13580287992954254,8.652420043945312,-0.045779999345541,-1.5717799663543701,0.0,543486.0
1.0,-45.310646057128906,-29.734689712524414,43.262901306152344,40.25066375732422,0.0,0.0,0.0,-0.0,0.3007804751396179,0.9182105660438538,-0.13580287992954254,8.652420043945312,-0.045779999345541,-1.5717799663543701,0.0,543487.0
1.0,-6.6800103187561035,-4.322606563568115,-32.12696838378906,-19.495452880859375,0.0,0.0,0.0,-0.0,0.3007804751396179,0.9182105660438538,-0.13580287992954254,8.652420043945312,-0.045779999345541,-1.5717799663543701,0.0,543488.0
1.0,20.155977249145508,23.70637321472168,-83.47538757324219,-64.07025146484375,0.0,0.0,0.0,-0.0,0.3007804751396179,0.9182105660438538,-0.13580287992954254,8.652420043945312,-0.045779999345541,-1.5717799663543701,0.0,543489.0
1.0,33.41987609863281,38.51363754272461,-91.4251480102539,-70.7386474609375,0.0,0.0,0.0,-0.0,0.3007804751396179,0.9182105660438538,-0.13580287992954254,8.652420043945312,-0.045779999345541,-1.5717799663543701,0.0,543490.0
1.0,35.91731643676758,31.791343688964844,-57.626548767089844,-37.18851089477539,0.0,0.0,0.0,-0.0,0.3007804751396179,0.9182105660438538,-0.13580287992954254,8.652420043945312,-0.045779999345541,-1.5717799663543701,0.0,543491.0
1.0,28.462265014648438,7.397897720336914,-4.513237953186035,18.25337028503418,0.0,0.0,0.0,-0.0,0.3014518618583679,0.921506404876709,-0.14184534549713135,11.094019889831543,-0.5798799991607666,-2.0601000785827637,0.0,543492.0
1.0,13.002116203308105,-21.416900634765625,43.08688735961914,64.99405670166016,0.0,0.0,0.0,-0.0,0.3014518618583679,0.921506404876709,-0.14184534549713135,11.094019889831543,-0.5798799991607666,-2.0601000785827637,0.0,543493.0
1.0,-4.1024017333984375,-39.0692253112793,67.55256652832031,78.41522979736328,0.0,0.0,-0.0,-0.0,0.3014518618583679,0.921506404876709,-0.14184534549713135,11.094019889831543,-0.5798799991607666,-2.0601000785827637,0.0,543494.0
1.0,-13.003756523132324,-35.791656494140625,57.44810485839844,51.40974426269531,0.0,0.0,-0.0,-0.0,0.3014518618583679,0.921506404876709,-0.14184534549713135,11.094019889831543,-0.5798799991607666,-2.0601000785827637,0.0,543495.0
1.0,-7.582677841186523,-13.200540542602539,13.666224479675293,-3.528754234313965,0.0,0.0,-0.0,-0.0,0.3014518618583679,0.921506404876709,-0.14184534549713135,11.094019889831543,-0.5798799991607666,-2.0601000785827637,0.0,543496.0
1.0,6.925070285797119,16.59286117553711,-43.663509368896484,-58.11542892456055,0.0,0.0,-0.0,-0.0,0.3014518618583679,0.921506404876709,-0.14184534549713135,11.094019889831543,-0.5798799991607666,-2.0601000785827637,0.0,543497.0
1.0,15.825411796569824,37.59385299682617,-80.36420440673828,-82.28065490722656,0.0,0.0,-0.0,-0.0,0.3014518618583679,0.921506404876709,-0.14184534549713135,11.094019889831543,-0.5798799991607666,-2.0601000785827637,0.0,543498.0
1.0,8.431636810302734,38.57914733886719,-71.04817962646484,-62.626739501953125,0.0,0.0,-0.0,-0.0,0.3014518618583679,0.921506404876709,-0.14184534549713135,11.094019889831543,-0.5798799991607666,-2.0601000785827637,0.0,543499.0
1.0,-10.462733268737793,19.085798263549805,-21.457115173339844,-10.90636920928955,0.0,0.0,-0.0,-0.0,0.3014518618583679,0.921506404876709,-0.14184534549713135,11.094019889831543,-0.5798799991607666,-2.0601000785827637,0.0,543500.0
1.0,-27.75621223449707,-10.6917724609375,39.22880935668945,43.248294830322266,0.0,0.0,-0.0,-0.0,0.3014518618583679,0.921506404876709,-0.14184534549713135,11.094019889831543,-0.5798799991607666,-2.0601000785827637,0.0,543501.0
1.0,-36.37698745727539,-35.002986907958984,82.62042999267578,70.2152099609375,0.0,0.0,-0.0,-0.0,0.3018791079521179,0.935300350189209,-0.14318810403347015,8.606639862060547,-0.7935199737548828,-1.052940011024475,0.0,543502.0
1.0,-30.508188247680664,-40.447532653808594,88.60286712646484,58.12691116333008,0.0,0.0,-0.0,-0.0,0.3018791079521179,0.935300350189209,-0.14318810403347015,8.606639862060547,-0.7935199737548828,-1.052940011024475,0.0,543503.0
1.0,-1.82229745388031,-23.51495933532715,46.17715072631836,17.51831817626953,0.0,0.0,-0.0,-0.0,0.3018791079521179,0.935300350189209,-0.14318810403347015,8.606639862060547,-0.7935199737548828,-1.052940011024475,0.0,543504.0
1.0,39.719905853271484,6.991004943847656,-30.91960906982422,-29.16823959350586,0.0,0.0,-0.0,-0.0,0.3018791079521179,0.935300350189209,-0.14318810403347015,8.606639862060547,-0.7935199737548828,-1.052940011024475,0.0,543505.0
1.0,63.65827560424805,34.30272674560547,-97.84649658203125,-60.7244758605957,0.0,0.0,-0.0,-0.0,0.3018791079521179,0.935300350189209,-0.14318810403347015,8.606639862060547,-0.7935199737548828,-1.052940011024475,0.0,543506.0
1.0,50.72321319580078,43.1021614074707,-108.5101318359375,-63.73919677734375,0.0,0.0,-0.0,-0.0,0.3018791079521179,0.935300350189209,-0.14318810403347015,8.606639862060547,-0.7935199737548828,-1.052940011024475,0.0,543507.0
1.0,9.419591903686523,28.54171371459961,-55.026878356933594,-34.246925354003906,0.0,0.0,-0.0,-0.0,0.3018791079521179,0.935300350189209,-0.14318810403347015,8.606639862060547,-0.7935199737548828,-1.052940011024475,0.0,543508.0
1.0,-36.39617919921875,-1.5724050998687744,28.46438980102539,17.108043670654297,0.0,0.0,-0.0,-0.0,0.3018791079521179,0.935300350189209,-0.14318810403347015,8.606639862060547,-0.7935199737548828,-1.052940011024475,0.0,543509.0
1.0,-64.76882934570312,-31.331586837768555,96.65104675292969,62.00386047363281,0.0,0.0,-0.0,-0.0,0.3018791079521179,0.935300350189209,-0.14318810403347015,8.606639862060547,-0.7935199737548828,-1.052940011024475,0.0,543510.0
1.0,-63.937232971191406,-44.7335090637207,117.42744445800781,72.06694030761719,0.0,0.0,-0.0,-0.0,0.3018791079521179,0.935300350189209,-0.14318810403347015,8.606639862060547,-0.7935199737548828,-1.052940011024475,0.0,543511.0
1.0,-34.22623062133789,-34.35115051269531,78.10572814941406,43.59627914428711,0.0,0.0,-0.0,-0.0,0.3038322329521179,0.9440893530845642,-0.14233362674713135,4.990019798278809,-0.4730600118637085,2.334779977798462,0.0,543512.0
1.0,11.709123611450195,-5.599647521972656,-4.975921630859375,-2.952186346054077,0.0,0.0,-0.0,-0.0,0.3038322329521179,0.9440893530845642,-0.14233362674713135,4.990019798278809,-0.4730600118637085,2.334779977798462,0.0,543513.0
1.0,53.78732681274414,26.1159610748291,-86.11125183105469,-42.655643463134766,0.0,0.0,-0.0,-0.0,0.3038322329521179,0.9440893530845642,-0.14233362674713135,4.990019798278809,-0.4730600118637085,2.334779977798462,0.0,543514.0
1.0,71.76441192626953,43.519046783447266,-119.31423950195312,-58.437782287597656,0.0,0.0,-0.0,-0.0,0.3038322329521179,0.9440893530845642,-0.14233362674713135,4.990019798278809,-0.4730600118637085,2.334779977798462,0.0,543515.0
1.0,53.838287353515625,37.21817398071289,-88.19510650634766,-44.146121978759766,0.0,0.0,-0.0,-0.0,0.3038322329521179,0.9440893530845642,-0.14233362674713135,4.990019798278809,-0.4730600118637085,2.334779977798462,0.0,543516.0
1.0,7.902413845062256,11.009275436401367,-11.836949348449707,-6.927443504333496,0.0,0.0,-0.0,-0.0,0.3038322329521179,0.9440893530845642,-0.14233362674713135,4.990019798278809,-0.4730600118637085,2.334779977798462,0.0,543517.0
1.0,-39.9118766784668,-20.690868377685547,67.20378875732422,33.00728988647461,0.0,0.0,-0.0,-0.0,0.3038322329521179,0.9440893530845642,-0.14233362674713135,4.990019798278809,-0.4730600118637085,2.334779977798462,0.0,543518.0
1.0,-63.629093170166016,-40.704917907714844,105.7657241821289,50.989566802978516,0.0,0.0,-0.0,-0.0,0.3038322329521179,0.9440893530845642,-0.14233362674713135,4.990019798278809,-0.4730600118637085,2.334779977798462,0.0,543519.0
1.0,-54.042945861816406,-38.348392486572266,84.20344543457031,34.91348648071289,0.0,0.0,-0.0,-0.0,0.3038322329521179,0.9440893530845642,-0.14233362674713135,4.990019798278809,-0.4730600118637085,2.334779977798462,0.0,543520.0
1.0,-20.526208877563477,-15.171818733215332,17.719911575317383,-4.5106282234191895,0.0,0.0,-0.0,0.0,0.3038322329521179,0.9440893530845642,-0.14233362674713135,4.990019798278809,-0.4730600118637085,2.334779977798462,0.0,543521.0
1.0,17.743759155273438,16.178369522094727,-51.40218734741211,-43.325157165527344,0.0,0.0,-0.0,0.0,0.3054801821708679,0.942197322845459,-0.14446984231472015,2.2126998901367188,1.3428800106048584,2.0295801162719727,0.0,543522.0
1.0,44.01306915283203,38.6962776184082,-81.23979949951172,-60.310699462890625,0.0,0.0,-0.0,0.0,0.3054801821708679,0.942197322845459,-0.14446984231472015,2.2126998901367188,1.3428800106048584,2.0295801162719727,0.0,543523.0
1.0,51.77005386352539,40.24063491821289,-63.3344841003418,-44.348838806152344,0.0,0.0,-0.0,0.0,0.3054801821708679,0.942197322845459,-0.14446984231472015,2.2126998901367188,1.3428800106048584,2.0295801162719727,0.0,543524.0
1.0,37.49979782104492,20.07721519470215,-21.439634323120117,1.590463399887085,0.0,0.0,-0.0,0.0,0.3054801821708679,0.942197322845459,-0.14446984231472015,2.2126998901367188,1.3428800106048584,2.0295801162719727,0.0,543525.0
1.0,-0.2078261524438858,-11.129396438598633,20.48178482055664,56.96593475341797,0.0,0.0,-0.0,0.0,0.3054801821708679,0.942197322845459,-0.14446984231472015,2.2126998901367188,1.3428800106048584,2.0295801162719727,0.0,543526.0
1.0,-41.913421630859375,-36.62986373901367,47.648372650146484,88.8735580444336,0.0,0.0,-0.0,0.0,0.3054801821708679,0.942197322845459,-0.14446984231472015,2.2126998901367188,1.3428800106048584,2.0295801162719727,0.0,543527.0
1.0,-54.64708709716797,-42.22312545776367,47.33847427368164,72.16690826416016,0.0,0.0,-0.0,0.0,0.3054801821708679,0.942197322845459,-0.14446984231472015,2.2126998901367188,1.3428800106048584,2.0295801162719727,0.0,543528.0
1.0,-28.53649139404297,-24.510910034179688,18.570268630981445,11.713179588317871,0.0,0.0,-0.0,0.0,0.3054801821708679,0.942197322845459,-0.14446984231472015,2.2126998901367188,1.3428800106048584,2.0295801162719727,0.0,543529.0
1.0,13.10046100616455,6.867581844329834,-19.115644454956055,-58.19034194946289,0.0,0.0,-0.0,0.0,0.3054801821708679,0.942197322845459,-0.14446984231472015,2.2126998901367188,1.3428800106048584,2.0295801162719727,0.0,543530.0
1.0,38.930397033691406,34.4283332824707,-38.71182632446289,-97.39610290527344,0.0,0.0,-0.0,0.0,0.3054801821708679,0.942197322845459,-0.14446984231472015,2.2126998901367188,1.3428800106048584,2.0295801162719727,0.0,543531.0
1.0,36.8707389831543,42.804786682128906,-27.76283073425293,-85.48515319824219,0.0,0.0,-0.0,0.0,0.30914226174354553,0.931394100189209,-0.15093955397605896,-0.488319993019104,2.80784010887146,-2.517899990081787,0.0,543532.0
1.0,16.324249267578125,27.677371978759766,4.679107189178467,-31.291147232055664,0.0,0.0,-0.0,0.0,0.30914226174354553,0.931394100189209,-0.15093955397605896,-0.488319993019104,2.80784010887146,-2.517899990081787,0.0,543533.0
1.0,-8.940767288208008,-2.2874491214752197,38.434593200683594,35.720848083496094,0.0,0.0,-0.0,0.0,0.30914226174354553,0.931394100189209,-0.15093955397605896,-0.488319993019104,2.80784010887146,-2.517899990081787,0.0,543534.0
1.0,-29.62836456298828,-30.550453186035156,53.45771408081055,81.22958374023438,0.0,0.0,-0.0,0.0,0.30914226174354553,0.931394100189209,-0.15093955397605896,-0.488319993019104,2.80784010887146,-2.517899990081787,0.0,543535.0
1.0,-38.38951110839844,-41.84071350097656,38.52690887451172,83.51250457763672,0.0,0.0,-0.0,0.0,0.30914226174354553,0.931394100189209,-0.15093955397605896,-0.488319993019104,2.80784010887146,-2.517899990081787,0.0,543536.0
1.0,-29.02811050415039,-30.62407875061035,-1.29263436794281,44.74310302734375,0.0,0.0,-0.0,0.0,0.30914226174354553,0.931394100189209,-0.15093955397605896,-0.488319993019104,2.80784010887146,-2.517899990081787,0.0,543537.0
1.0,-1.8749092817306519,-3.3315582275390625,-46.79454803466797,-12.832419395446777,0.0,0.0,-0.0,0.0,0.30914226174354553,0.931394100189209,-0.15093955397605896,-0.488319993019104,2.80784010887146,-2.517899990081787,0.0,543538.0
1.0,31.26052474975586,25.522397994995117,-74.79773712158203,-60.382110595703125,0.0,0.0,-0.0,0.0,0.30914226174354553,0.931394100189209,-0.15093955397605896,-0.488319993019104,2.80784010887146,-2.517899990081787,0.0,543539.0
1.0,51.69478988647461,40.41324234008789,-68.70645141601562,-75.1595687866211,0.0,0.0,-0.0,0.0,0.30914226174354553,0.931394100189209,-0.15093955397605896,-0.488319993019104,2.80784010887146,-2.517899990081787,0.0,543540.0
1.0,45.73478698730469,33.03431701660156,-28.27720832824707,-49.780540466308594,0.0,0.0,-0.0,0.0,0.30914226174354553,0.931394100189209,-0.15093955397605896,-0.488319993019104,2.80784010887146,-2.517899990081787,0.0,543541.0
1.0,11.946328163146973,7.0348052978515625,29.108062744140625,3.618543863296509,0.0,0.0,-0.0,0.0,0.30908122658729553,0.925351619720459,-0.14929160475730896,4.120200157165527,2.044840097427368,-3.31141996383667,0.0,543542.0
1.0,-36.400840759277344,-23.84308624267578,78.1362075805664,57.88921356201172,0.0,0.0,-0.0,0.0,0.30908122658729553,0.925351619720459,-0.14929160475730896,4.120200157165527,2.044840097427368,-3.31141996383667,0.0,543543.0
1.0,-70.23234558105469,-42.651939392089844,93.90357971191406,82.66889953613281,0.0,0.0,-0.0,0.0,0.30908122658729553,0.925351619720459,-0.14929160475730896,4.120200157165527,2.044840097427368,-3.31141996383667,0.0,543544.0
1.0,-61.17140197753906,-38.46500778198242,60.171661376953125,61.06791305541992,0.0,0.0,-0.0,0.0,0.30908122658729553,0.925351619720459,-0.14929160475730896,4.120200157165527,2.044840097427368,-3.31141996383667,0.0,543545.0
1.0,-10.203381538391113,-12.901277542114258,-13.224358558654785,1.4313220977783203,0.0,0.0,-0.0,0.0,0.30908122658729553,0.925351619720459,-0.14929160475730896,4.120200157165527,2.044840097427368,-3.31141996383667,0.0,543546.0
1.0,49.2110710144043,20.68202781677246,-84.03089904785156,-65.19635009765625,0.0,0.0,-0.0,0.0,0.30908122658729553,0.925351619720459,-0.14929160475730896,4.120200157165527,2.044840097427368,-3.31141996383667,0.0,543547.0
1.0,79.3257064819336,44.20425796508789,-106.62480926513672,-100.18242645263672,0.0,0.0,-0.0,0.0,0.30908122658729553,0.925351619720459,-0.14929160475730896,4.120200157165527,2.044840097427368,-3.31141996383667,0.0,543548.0
1.0,64.91736602783203,44.64724349975586,-68.55883026123047,-81.32589721679688,0.0,0.0,-0.0,0.0,0.30908122658729553,0.925351619720459,-0.14929160475730896,4.120200157165527,2.044840097427368,-3.31141996383667,0.0,543549.0
1.0,16.962562561035156,21.4935359954834,5.930710792541504,-18.828889846801758,0.0,0.0,-0.0,0.0,0.30908122658729553,0.925351619720459,-0.14929160475730896,4.120200157165527,2.044840097427368,-3.31141996383667,0.0,543550.0
1.0,-39.485565185546875,-13.185999870300293,76.1376953125,54.44993591308594,0.0,0.0,-0.0,0.0,0.30908122658729553,0.925351619720459,-0.14929160475730896,4.120200157165527,2.044840097427368,-3.31141996383667,0.0,543551.0
1.0,-76.56681060791016,-41.085182189941406,105.7558364868164,103.30435180664062,0.0,0.0,-0.0,0.0,0.3046256899833679,0.934384822845459,-0.14263878762722015,4.990019798278809,1.495479941368103,-1.6023000478744507,0.0,543552.0
1.0,-72.75990295410156,-47.168861389160156,79.8266830444336,101.97801971435547,0.0,0.0,-0.0,0.0,0.3046256899833679,0.934384822845459,-0.14263878762722015,4.990019798278809,1.495479941368103,-1.6023000478744507,0.0,543553.0
1.0,-28.04231071472168,-28.070091247558594,12.854140281677246,47.202823638916016,0.0,0.0,-0.0,0.0,0.3046256899833679,0.934384822845459,-0.14263878762722015,4.990019798278809,1.495479941368103,-1.6023000478744507,0.0,543554.0
1.0,29.05171775817871,5.97542142868042,-58.916500091552734,-32.563804626464844,0.0,0.0,-0.0,0.0,0.3046256899833679,0.934384822845459,-0.14263878762722015,4.990019798278809,1.495479941368103,-1.6023000478744507,0.0,543555.0
1.0,62.3014030456543,36.54268264770508,-98.00775146484375,-93.28545379638672,0.0,0.0,-0.0,0.0,0.3046256899833679,0.934384822845459,-0.14263878762722015,4.990019798278809,1.495479941368103,-1.6023000478744507,0.0,543556.0
1.0,57.24878692626953,47.05987548828125,-86.2274169921875,-104.06439208984375,0.0,0.0,-0.0,0.0,0.3046256899833679,0.934384822845459,-0.14263878762722015,4.990019798278809,1.495479941368103,-1.6023000478744507,0.0,543557.0
1.0,24.43536949157715,32.18285369873047,-31.68241310119629,-61.89888381958008,0.0,0.0,-0.0,0.0,0.3046256899833679,0.934384822845459,-0.14263878762722015,4.990019798278809,1.495479941368103,-1.6023000478744507,0.0,543558.0
1.0,-17.639751434326172,0.25569576025009155,38.12300109863281,11.227801322937012,0.0,0.0,-0.0,0.0,0.3046256899833679,0.934384822845459,-0.14263878762722015,4.990019798278809,1.495479941368103,-1.6023000478744507,0.0,543559.0
1.0,-49.60957717895508,-31.5655574798584,86.95632934570312,77.26602935791016,0.0,0.0,-0.0,0.0,0.3046256899833679,0.934384822845459,-0.14263878762722015,4.990019798278809,1.495479941368103,-1.6023000478744507,0.0,543560.0
1.0,-52.74345016479492,-46.19607162475586,87.4181137084961,97.80436706542969,0.0,0.0,-0.0,0.0,0.3046256899833679,0.934384822845459,-0.14263878762722015,4.990019798278809,1.495479941368103,-1.6023000478744507,0.0,543561.0
1.0,-22.167701721191406,-35.849910736083984,40.303680419921875,60.41685485839844,0.0,0.0,-0.0,0.0,0.3047477602958679,0.940915584564209,-0.13751184940338135,4.669559955596924,0.5493599772453308,1.541260004043579,0.0,543562.0
1.0,25.54488182067871,-6.2504401206970215,-28.025205612182617,-9.570416450500488,0.0,0.0,-0.0,0.0,0.3047477602958679,0.940915584564209,-0.13751184940338135,4.669559955596924,0.5493599772453308,1.541260004043579,0.0,543563.0
1.0,62.21310806274414,26.674976348876953,-82.63379669189453,-68.66310119628906,0.0,0.0,-0.0,0.0,0.3047477602958679,0.940915584564209,-0.13751184940338135,4.669559955596924,0.5493599772453308,1.541260004043579,0.0,543564.0
1.0,63.514949798583984,45.330711364746094,-92.90912628173828,-85.11408996582031,0.0,0.0,-0.0,0.0,0.3047477602958679,0.940915584564209,-0.13751184940338135,4.669559955596924,0.5493599772453308,1.541260004043579,0.0,543565.0
1.0,24.05799674987793,39.996315002441406,-47.685176849365234,-54.40013122558594,0.0,0.0,-0.0,0.0,0.3047477602958679,0.940915584564209,-0.13751184940338135,4.669559955596924,0.5493599772453308,1.541260004043579,0.0,543566.0
1.0,-35.980186462402344,13.766817092895508,30.11778450012207,4.9846367835998535,0.0,0.0,-0.0,0.0,0.3047477602958679,0.940915584564209,-0.13751184940338135,4.669559955596924,0.5493599772453308,1.541260004043579,0.0,543567.0
1.0,-80.10310363769531,-19.556724548339844,90.64958953857422,62.0380744934082,0.0,0.0,-0.0,0.0,0.3047477602958679,0.940915584564209,-0.13751184940338135,4.669559955596924,0.5493599772453308,1.541260004043579,0.0,543568.0
1.0,-79.46345520019531,-42.39799118041992,94.88904571533203,84.48971557617188,0.0,0.0,-0.0,0.0,0.3047477602958679,0.940915584564209,-0.13751184940338135,4.669559955596924,0.5493599772453308,1.541260004043579,0.0,543569.0
1.0,-34.461429595947266,-42.53376007080078,45.91537094116211,57.30220031738281,0.0,0.0,-0.0,0.0,0.3047477602958679,0.940915584564209,-0.13751184940338135,4.669559955596924,0.5493599772453308,1.541260004043579,0.0,543570.0
1.0,28.34337043762207,-20.00285530090332,-22.92949676513672,-4.562318325042725,0.0,0.0,-0.0,0.0,0.3047477602958679,0.940915584564209,-0.13751184940338135,4.669559955596924,0.5493599772453308,1.541260004043579,0.0,543571.0
1.0,75.59595489501953,12.807988166809082,-76.40693664550781,-64.40033721923828,0.0,0.0,-0.0,0.0,0.3008415102958679,0.935361385345459,-0.13586391508579254,5.432559967041016,-0.9308599829673767,1.6175600290298462,0.0,543572.0
1.0,83.95907592773438,37.85799026489258,-89.97138977050781,-86.42828369140625,0.0,0.0,-0.0,0.0,0.3008415102958679,0.935361385345459,-0.13586391508579254,5.432559967041016,-0.9308599829673767,1.6175600290298462,0.0,543573.0
1.0,50.812294006347656,41.713401794433594,-57.02895736694336,-58.73261260986328,0.0,0.0,0.0,0.0,0.3008415102958679,0.935361385345459,-0.13586391508579254,5.432559967041016,-0.9308599829673767,1.6175600290298462,0.0,543574.0
1.0,-4.949693202972412,23.06540870666504,2.9190640449523926,1.127534031867981,0.0,0.0,0.0,0.0,0.3008415102958679,0.935361385345459,-0.13586391508579254,5.432559967041016,-0.9308599829673767,1.6175600290298462,0.0,543575.0
1.0,-53.561885833740234,-7.562089920043945,54.17524337768555,60.359588623046875,0.0,0.0,0.0,0.0,0.3008415102958679,0.935361385345459,-0.13586391508579254,5.432559967041016,-0.9308599829673767,1.6175600290298462,0.0,543576.0
1.0,-70.74447631835938,-33.78980255126953,71.50851440429688,87.66923522949219,0.0,0.0,0.0,0.0,0.3008415102958679,0.935361385345459,-0.13586391508579254,5.432559967041016,-0.9308599829673767,1.6175600290298462,0.0,543577.0
1.0,-51.534400939941406,-41.594791412353516,55.1104850769043,67.23077392578125,0.0,0.0,0.0,0.0,0.3008415102958679,0.935361385345459,-0.13586391508579254,5.432559967041016,-0.9308599829673767,1.6175600290298462,0.0,543578.0
1.0,-10.638920783996582,-26.84727668762207,19.964859008789062,9.311005592346191,0.0,0.0,0.0,0.0,0.3008415102958679,0.935361385345459,-0.13586391508579254,5.432559967041016,-0.9308599829673767,1.6175600290298462,0.0,543579.0
1.0,29.770570755004883,2.2986748218536377,-20.375547409057617,-53.52812194824219,0.0,0.0,0.0,0.0,0.3008415102958679,0.935361385345459,-0.13586391508579254,5.432559967041016,-0.9308599829673767,1.6175600290298462,0.0,543580.0
1.0,51.67546081542969,29.714921951293945,-51.99569320678711,-85.69117736816406,0.0,0.0,0.0,0.0,0.3008415102958679,0.935361385345459,-0.13586391508579254,5.432559967041016,-0.9308599829673767,1.6175600290298462,0.0,543581.0
1.0,47.0330810546875,40.223304748535156,-58.54581832885742,-68.4803237915039,0.0,0.0,0.0,0.0,0.3020011782646179,0.927670955657959,-0.14166224002838135,7.217979907989502,-0.488319993019104,-0.244159996509552,0.0,543582.0
1.0,20.006532669067383,28.299455642700195,-33.728355407714844,-10.825446128845215,0.0,0.0,0.0,0.0,0.3020011782646179,0.927670955657959,-0.14166224002838135,7.217979907989502,-0.488319993019104,-0.244159996509552,0.0,543583.0
1.0,-15.167267799377441,0.8954614400863647,11.882160186767578,53.56188201904297,0.0,0.0,0.0,0.0,0.3020011782646179,0.927670955657959,-0.14166224002838135,7.217979907989502,-0.488319993019104,-0.244159996509552,0.0,543584.0
1.0,-41.06509780883789,-26.650562286376953,53.922080993652344,86.24071502685547,0.0,0.0,0.0,0.0,0.3020011782646179,0.927670955657959,-0.14166224002838135,7.217979907989502,-0.488319993019104,-0.244159996509552,0.0,543585.0
1.0,-45.51881408691406,-38.94678497314453,66.18762969970703,69.19939422607422,0.0,0.0,0.0,0.0,0.3020011782646179,0.927670955657959,-0.14166224002838135,7.217979907989502,-0.488319993019104,-0.244159996509552,0.0,543586.0
1.0,-27.202999114990234,-29.154586791992188,39.583980560302734,13.711156845092773,0.0,0.0,0.0,0.0,0.3020011782646179,0.927670955657959,-0.14166224002838135,7.217979907989502,-0.488319993019104,-0.244159996509552,0.0,543587.0
1.0,4.326743125915527,-2.7531418800354004,-12.155867576599121,-50.163612365722656,0.0,0.0,0.0,0.0,0.3020011782646179,0.927670955657959,-0.14166224002838135,7.217979907989502,-0.488319993019104,-0.244159996509552,0.0,543588.0
1.0,33.312984466552734,25.54701042175293,-61.69944381713867,-89.34242248535156,0.0,0.0,0.0,0.0,0.3020011782646179,0.927670955657959,-0.14166224002838135,7.217979907989502,-0.488319993019104,-0.244159996509552,0.0,543589.0
1.0,45.6740837097168,39.85091781616211,-81.37928009033203,-83.08878326416016,0.0,0.0,0.0,0.0,0.3020011782646179,0.927670955657959,-0.14166224002838135,7.217979907989502,-0.488319993019104,-0.244159996509552,0.0,543590.0
1.0,35.60123825073242,32.177127838134766,-57.97197723388672,-34.553890228271484,0.0,0.0,0.0,0.0,0.3020011782646179,0.927670955657959,-0.14166224002838135,7.217979907989502,-0.488319993019104,-0.244159996509552,0.0,543591.0
1.0,7.263861179351807,6.691006660461426,-1.1497406959533691,31.550273895263672,0.0,0.0,0.0,0.0,0.3029167056083679,0.925717830657959,-0.14642296731472015,8.072540283203125,-0.7935199737548828,-1.6785999536514282,0.0,543592.0
1.0,-27.183897018432617,-23.0734806060791,61.816650390625,82.39839935302734,0.0,0.0,0.0,0.0,0.3029167056083679,0.925717830657959,-0.14642296731472015,8.072540283203125,-0.7935199737548828,-1.6785999536514282,0.0,543593.0
1.0,-50.99567413330078,-41.07610321044922,98.79352569580078,92.44308471679688,0.0,0.0,0.0,0.0,0.3029167056083679,0.925717830657959,-0.14642296731472015,8.072540283203125,-0.7935199737548828,-1.6785999536514282,0.0,543594.0
1.0,-48.3364143371582,-37.30882263183594,85.62030792236328,57.06767272949219,0.0,0.0,0.0,0.0,0.3029167056083679,0.925717830657959,-0.14642296731472015,8.072540283203125,-0.7935199737548828,-1.6785999536514282,0.0,543595.0
1.0,-16.873600006103516,-13.684220314025879,24.218185424804688,-4.990670204162598,0.0,0.0,0.0,0.0,0.3029167056083679,0.925717830657959,-0.14642296731472015,8.072540283203125,-0.7935199737548828,-1.6785999536514282,0.0,543596.0
1.0,24.286518096923828,17.25255012512207,-48.810115814208984,-62.3259162902832,0.0,0.0,0.0,0.0,0.3029167056083679,0.925717830657959,-0.14642296731472015,8.072540283203125,-0.7935199737548828,-1.6785999536514282,0.0,543597.0
1.0,49.326210021972656,39.15969467163086,-91.00442504882812,-85.48609161376953,0.0,0.0,0.0,0.0,0.3029167056083679,0.925717830657959,-0.14642296731472015,8.072540283203125,-0.7935199737548828,-1.6785999536514282,0.0,543598.0
1.0,46.773841857910156,40.53076171875,-88.04044342041016,-63.7073974609375,0.0,0.0,0.0,0.0,0.3029167056083679,0.925717830657959,-0.14642296731472015,8.072540283203125,-0.7935199737548828,-1.6785999536514282,0.0,543599.0
1.0,22.774030685424805,20.87939453125,-49.99365997314453,-12.333417892456055,0.0,0.0,0.0,0.0,0.3029167056083679,0.925717830657959,-0.14642296731472015,8.072540283203125,-0.7935199737548828,-1.6785999536514282,0.0,543600.0
1.0,-7.898412227630615,-9.347257614135742,4.727779388427734,38.873252868652344,0.0,0.0,0.0,0.0,0.3029167056083679,0.925717830657959,-0.14642296731472015,8.072540283203125,-0.7935199737548828,-1.6785999536514282,0.0,543601.0
1.0,-31.43844985961914,-34.182308197021484,53.76641082763672,63.83768081665039,0.0,0.0,0.0,0.0,0.3057243227958679,0.931272029876709,-0.14794884622097015,4.54748010635376,-0.3815000057220459,-2.8841400146484375,0.0,543602.0
1.0,-39.76397705078125,-40.297142028808594,74.79244232177734,53.527442932128906,0.0,0.0,0.0,-0.0,0.3057243227958679,0.931272029876709,-0.14794884622097015,4.54748010635376,-0.3815000057220459,-2.8841400146484375,0.0,543603.0
1.0,-28.76470184326172,-24.26459312438965,55.95427322387695,16.940105438232422,0.0,0.0,0.0,-0.0,0.3057243227958679,0.931272029876709,-0.14794884622097015,4.54748010635376,-0.3815000057220459,-2.8841400146484375,0.0,543604.0
1.0,-0.9257550239562988,5.442824840545654,7.425173759460449,-27.74395751953125,0.0,0.0,0.0,-0.0,0.3057243227958679,0.931272029876709,-0.14794884622097015,4.54748010635376,-0.3815000057220459,-2.8841400146484375,0.0,543605.0
1.0,27.664154052734375,32.45161437988281,-39.45790100097656,-58.02433395385742,0.0,0.0,0.0,-0.0,0.3057243227958679,0.931272029876709,-0.14794884622097015,4.54748010635376,-0.3815000057220459,-2.8841400146484375,0.0,543606.0
1.0,35.44407653808594,41.327537536621094,-52.14603042602539,-54.071651458740234,0.0,0.0,0.0,-0.0,0.3057243227958679,0.931272029876709,-0.14794884622097015,4.54748010635376,-0.3815000057220459,-2.8841400146484375,0.0,543607.0
1.0,16.678619384765625,26.908287048339844,-23.747926712036133,-14.7058744430542,0.0,0.0,0.0,-0.0,0.3057243227958679,0.931272029876709,-0.14794884622097015,4.54748010635376,-0.3815000057220459,-2.8841400146484375,0.0,543608.0
1.0,-13.131497383117676,-2.8731846809387207,21.155954360961914,37.39915466308594,0.0,0.0,0.0,-0.0,0.3057243227958679,0.931272029876709,-0.14794884622097015,4.54748010635376,-0.3815000057220459,-2.8841400146484375,0.0,543609.0
1.0,-33.0389518737793,-31.786205291748047,50.493343353271484,71.53501892089844,0.0,0.0,0.0,-0.0,0.3057243227958679,0.931272029876709,-0.14794884622097015,4.54748010635376,-0.3815000057220459,-2.8841400146484375,0.0,543610.0
1.0,-30.905595779418945,-43.97556686401367,47.328407287597656,67.71466827392578,0.0,0.0,0.0,-0.0,0.3057243227958679,0.931272029876709,-0.14794884622097015,4.54748010635376,-0.3815000057220459,-2.8841400146484375,0.0,543611.0
1.0,-8.810211181640625,-32.52800369262695,12.779251098632812,25.973600387573242,0.0,0.0,0.0,-0.0,0.3079215884208679,0.937314510345459,-0.14623986184597015,3.967600107192993,-0.045779999345541,-2.3195199966430664,0.0,543612.0
1.0,19.08523178100586,-3.334050416946411,-36.32598114013672,-32.55707550048828,0.0,0.0,0.0,-0.0,0.3079215884208679,0.937314510345459,-0.14623986184597015,3.967600107192993,-0.045779999345541,-2.3195199966430664,0.0,543613.0
1.0,36.628578186035156,28.03189468383789,-71.29373168945312,-75.70740509033203,0.0,0.0,0.0,-0.0,0.3079215884208679,0.937314510345459,-0.14623986184597015,3.967600107192993,-0.045779999345541,-2.3195199966430664,0.0,543614.0
1.0,35.32794952392578,44.70615005493164,-68.29190826416016,-80.3245620727539,0.0,0.0,0.0,-0.0,0.3079215884208679,0.937314510345459,-0.14623986184597015,3.967600107192993,-0.045779999345541,-2.3195199966430664,0.0,543615.0
1.0,16.870929718017578,37.8352165222168,-27.669185638427734,-45.55392837524414,0.0,0.0,0.0,-0.0,0.3079215884208679,0.937314510345459,-0.14623986184597015,3.967600107192993,-0.045779999345541,-2.3195199966430664,0.0,543616.0
1.0,-10.142127990722656,11.056195259094238,28.100135803222656,11.012834548950195,0.0,0.0,0.0,-0.0,0.3079215884208679,0.937314510345459,-0.14623986184597015,3.967600107192993,-0.045779999345541,-2.3195199966430664,0.0,543617.0
1.0,-33.468177795410156,-21.729726791381836,70.96308898925781,62.42265319824219,0.0,0.0,0.0,-0.0,0.3079215884208679,0.937314510345459,-0.14623986184597015,3.967600107192993,-0.045779999345541,-2.3195199966430664,0.0,543618.0
1.0,-41.1015625,-43.04751205444336,80.22093963623047,81.48442840576172,0.0,0.0,0.0,-0.0,0.3079215884208679,0.937314510345459,-0.14623986184597015,3.967600107192993,-0.045779999345541,-2.3195199966430664,0.0,543619.0
1.0,-28.258256912231445,-41.070308685302734,51.728878021240234,56.12067413330078,0.0,0.0,0.0,-0.0,0.3079215884208679,0.937314510345459,-0.14623986184597015,3.967600107192993,-0.045779999345541,-2.3195199966430664,0.0,543620.0
1.0,-1.5437394380569458,-16.740436553955078,-1.1699646711349487,0.6360998749732971,0.0,0.0,0.0,-0.0,0.3079215884208679,0.937314510345459,-0.14623986184597015,3.967600107192993,-0.045779999345541,-2.3195199966430664,0.0,543621.0
1.0,24.84758758544922,16.54050064086914,-55.7305908203125,-52.40460205078125,0.0,0.0,0.0,-0.0,0.3066398501396179,0.940183162689209,-0.14575158059597015,5.661459922790527,1.7243800163269043,1.1445000171661377,0.0,543622.0
1.0,38.479347229003906,40.33570861816406,-86.2765884399414,-73.66356658935547,0.0,0.0,0.0,-0.0,0.3066398501396179,0.940183162689209,-0.14575158059597015,5.661459922790527,1.7243800163269043,1.1445000171661377,0.0,543623.0
1.0,33.9007682800293,41.818084716796875,-72.2541275024414,-53.880821228027344,0.0,0.0,0.0,-0.0,0.3066398501396179,0.940183162689209,-0.14575158059597015,5.661459922790527,1.7243800163269043,1.1445000171661377,0.0,543624.0
1.0,12.578750610351562,20.891626358032227,-15.414937973022461,-5.92819356918335,0.0,0.0,0.0,-0.0,0.3066398501396179,0.940183162689209,-0.14575158059597015,5.661459922790527,1.7243800163269043,1.1445000171661377,0.0,543625.0
1.0,-15.461970329284668,-10.957396507263184,51.1259765625,44.45768737792969,0.0,0.0,0.0,-0.0,0.3066398501396179,0.940183162689209,-0.14575158059597015,5.661459922790527,1.7243800163269043,1.1445000171661377,0.0,543626.0
1.0,-33.73234939575195,-37.08157730102539,84.60367584228516,70.75727081298828,0.0,0.0,0.0,-0.0,0.3066398501396179,0.940183162689209,-0.14575158059597015,5.661459922790527,1.7243800163269043,1.1445000171661377,0.0,543627.0
1.0,-30.860919952392578,-43.77396774291992,67.26655578613281,58.4869384765625,0.0,0.0,0.0,-0.0,0.3066398501396179,0.940183162689209,-0.14575158059597015,5.661459922790527,1.7243800163269043,1.1445000171661377,0.0,543628.0
1.0,-10.357752799987793,-27.38836669921875,15.210599899291992,14.049238204956055,0.0,0.0,0.0,-0.0,0.3066398501396179,0.940183162689209,-0.14575158059597015,5.661459922790527,1.7243800163269043,1.1445000171661377,0.0,543629.0
1.0,13.651834487915039,3.5911037921905518,-40.027896881103516,-38.04236602783203,0.0,0.0,0.0,-0.0,0.3066398501396179,0.940183162689209,-0.14575158059597015,5.661459922790527,1.7243800163269043,1.1445000171661377,0.0,543630.0
1.0,27.77288818359375,32.65288162231445,-70.96438598632812,-68.66392517089844,0.0,0.0,0.0,-0.0,0.3066398501396179,0.940183162689209,-0.14575158059597015,5.661459922790527,1.7243800163269043,1.1445000171661377,0.0,543631.0
1.0,25.362348556518555,44.09978485107422,-64.55818176269531,-61.64408874511719,0.0,0.0,0.0,-0.0,0.3048698306083679,0.941709041595459,-0.14636193215847015,4.822159767150879,1.999060034751892,2.0295801162719727,0.0,543632.0
1.0,8.14979076385498,32.076175689697266,-25.468399047851562,-23.29498291015625,0.0,0.0,0.0,-0.0,0.3048698306083679,0.941709041595459,-0.14636193215847015,4.822159767150879,1.999060034751892,2.0295801162719727,0.0,543633.0
1.0,-14.316740989685059,3.4952199459075928,27.407419204711914,23.910320281982422,0.0,0.0,0.0,-0.0,0.3048698306083679,0.941709041595459,-0.14636193215847015,4.822159767150879,1.999060034751892,2.0295801162719727,0.0,543634.0
1.0,-29.750621795654297,-26.044849395751953,67.37446594238281,55.85587692260742,0.0,0.0,0.0,-0.0,0.3048698306083679,0.941709041595459,-0.14636193215847015,4.822159767150879,1.999060034751892,2.0295801162719727,0.0,543635.0
1.0,-30.06122589111328,-40.568641662597656,70.68392944335938,57.95021057128906,0.0,0.0,0.0,-0.0,0.3048698306083679,0.941709041595459,-0.14636193215847015,4.822159767150879,1.999060034751892,2.0295801162719727,0.0,543636.0
1.0,-14.960959434509277,-32.453250885009766,32.322731018066406,29.594423294067383,0.0,0.0,0.0,-0.0,0.3048698306083679,0.941709041595459,-0.14636193215847015,4.822159767150879,1.999060034751892,2.0295801162719727,0.0,543637.0
1.0,9.083298683166504,-6.437897205352783,-27.363821029663086,-14.98514175415039,0.0,0.0,0.0,-0.0,0.3048698306083679,0.941709041595459,-0.14636193215847015,4.822159767150879,1.999060034751892,2.0295801162719727,0.0,543638.0
1.0,31.50504493713379,23.018871307373047,-72.93374633789062,-51.40229034423828,0.0,0.0,0.0,-0.0,0.3048698306083679,0.941709041595459,-0.14636193215847015,4.822159767150879,1.999060034751892,2.0295801162719727,0.0,543639.0
1.0,40.044864654541016,39.40482711791992,-75.77657318115234,-58.097084045410156,0.0,0.0,0.0,-0.0,0.3048698306083679,0.941709041595459,-0.14636193215847015,4.822159767150879,1.999060034751892,2.0295801162719727,0.0,543640.0
1.0,27.086183547973633,33.506256103515625,-34.217529296875,-29.29874610900879,0.0,0.0,0.0,-0.0,0.3048698306083679,0.941709041595459,-0.14636193215847015,4.822159767150879,1.999060034751892,2.0295801162719727,0.0,543641.0
1.0,-1.5582902431488037,8.413466453552246,26.881942749023438,20.904905319213867,0.0,0.0,0.0,-0.0,0.3048087954521179,0.937924861907959,-0.14691124856472015,4.318580150604248,1.892240047454834,1.999060034751892,0.0,543642.0
1.0,-29.169607162475586,-22.595233917236328,74.9432601928711,65.11605072021484,0.0,0.0,0.0,-0.0,0.3048087954521179,0.937924861907959,-0.14691124856472015,4.318580150604248,1.892240047454834,1.999060034751892,0.0,543643.0
1.0,-41.541194915771484,-42.48117446899414,87.79887390136719,76.23451232910156,0.0,0.0,0.0,-0.0,0.3048087954521179,0.937924861907959,-0.14691124856472015,4.318580150604248,1.892240047454834,1.999060034751892,0.0,543644.0
1.0,-33.852901458740234,-39.35386657714844,59.716121673583984,42.52279281616211,0.0,0.0,0.0,-0.0,0.3048087954521179,0.937924861907959,-0.14691124856472015,4.318580150604248,1.892240047454834,1.999060034751892,0.0,543645.0
1.0,-10.679430961608887,-14.101310729980469,0.1621549278497696,-20.89960289001465,0.0,0.0,0.0,-0.0,0.3048087954521179,0.937924861907959,-0.14691124856472015,4.318580150604248,1.892240047454834,1.999060034751892,0.0,543646.0
1.0,15.821131706237793,19.623462677001953,-65.17310333251953,-77.68529510498047,0.0,0.0,0.0,-0.0,0.3048087954521179,0.937924861907959,-0.14691124856472015,4.318580150604248,1.892240047454834,1.999060034751892,0.0,543647.0
1.0,33.142616271972656,43.311073303222656,-100.09480285644531,-95.84943389892578,0.0,0.0,0.0,-0.0,0.3048087954521179,0.937924861907959,-0.14691124856472015,4.318580150604248,1.892240047454834,1.999060034751892,0.0,543648.0
1.0,34.149261474609375,44.17878723144531,-81.40707397460938,-66.77117156982422,0.0,0.0,0.0,-0.0,0.3048087954521179,0.937924861907959,-0.14691124856472015,4.318580150604248,1.892240047454834,1.999060034751892,0.0,543649.0
1.0,19.209482192993164,22.028003692626953,-21.34971809387207,-4.0623087882995605,0.0,0.0,0.0,-0.0,0.3048087954521179,0.937924861907959,-0.14691124856472015,4.318580150604248,1.892240047454834,1.999060034751892,0.0,543650.0
1.0,-2.8136768341064453,-11.351325035095215,40.62434005737305,63.224754333496094,0.0,0.0,0.0,-0.0,0.3048087954521179,0.937924861907959,-0.14691124856472015,4.318580150604248,1.892240047454834,1.999060034751892,0.0,543651.0
1.0,-20.77884292602539,-38.40966033935547,71.45577239990234,100.37869262695312,0.0,0.0,0.0,-0.0,0.3036491274833679,0.930539608001709,-0.14379845559597015,5.493599891662598,1.40392005443573,0.244159996509552,0.0,543652.0
1.0,-26.692150115966797,-44.855369567871094,63.519779205322266,86.0884017944336,0.0,0.0,0.0,-0.0,0.3036491274833679,0.930539608001709,-0.14379845559597015,5.493599891662598,1.40392005443573,0.244159996509552,0.0,543653.0
1.0,-16.024154663085938,-27.476627349853516,26.574560165405273,27.817432403564453,0.0,0.0,0.0,-0.0,0.3036491274833679,0.930539608001709,-0.14379845559597015,5.493599891662598,1.40392005443573,0.244159996509552,0.0,543654.0
1.0,6.383334636688232,4.226598262786865,-19.763046264648438,-42.92588424682617,0.0,0.0,0.0,-0.0,0.3036491274833679,0.930539608001709,-0.14379845559597015,5.493599891662598,1.40392005443573,0.244159996509552,0.0,543655.0
1.0,24.89761734008789,32.96889114379883,-50.05707931518555,-89.2891616821289,0.0,0.0,-0.0,-0.0,0.3036491274833679,0.930539608001709,-0.14379845559597015,5.493599891662598,1.40392005443573,0.244159996509552,0.0,543656.0
1.0,25.63751220703125,42.98077392578125,-48.191322326660156,-87.60963439941406,0.0,0.0,-0.0,-0.0,0.3036491274833679,0.930539608001709,-0.14379845559597015,5.493599891662598,1.40392005443573,0.244159996509552,0.0,543657.0
1.0,7.064518928527832,29.21129608154297,-17.483373641967773,-39.94981002807617,0.0,0.0,-0.0,-0.0,0.3036491274833679,0.930539608001709,-0.14379845559597015,5.493599891662598,1.40392005443573,0.244159996509552,0.0,543658.0
1.0,-19.867982864379883,-0.322643905878067,25.32253074645996,26.77004051208496,0.0,0.0,-0.0,-0.0,0.3036491274833679,0.930539608001709,-0.14379845559597015,5.493599891662598,1.40392005443573,0.244159996509552,0.0,543659.0
1.0,-38.64341354370117,-29.64093780517578,58.01081848144531,76.69820404052734,0.0,0.0,-0.0,-0.0,0.3036491274833679,0.930539608001709,-0.14379845559597015,5.493599891662598,1.40392005443573,0.244159996509552,0.0,543660.0
1.0,-37.23558807373047,-43.01863479614258,60.86027145385742,84.53295135498047,0.0,0.0,-0.0,-0.0,0.3036491274833679,0.930539608001709,-0.14379845559597015,5.493599891662598,1.40392005443573,0.244159996509552,0.0,543661.0
1.0,-13.463235855102539,-33.115150451660156,28.17662239074707,48.04902267456055,0.0,0.0,-0.0,-0.0,0.3038322329521179,0.926145076751709,-0.14294396340847015,6.6991400718688965,0.2899399995803833,-1.2360600233078003,0.0,543662.0
1.0,23.980241775512695,-5.0917649269104,-26.392980575561523,-11.93319320678711,0.0,0.0,-0.0,-0.0,0.3038322329521179,0.926145076751709,-0.14294396340847015,6.6991400718688965,0.2899399995803833,-1.2360600233078003,0.0,543663.0
1.0,55.52903747558594,25.927173614501953,-75.75222778320312,-63.472808837890625,0.0,0.0,-0.0,-0.0,0.3038322329521179,0.926145076751709,-0.14294396340847015,6.6991400718688965,0.2899399995803833,-1.2360600233078003,0.0,543664.0
1.0,58.8210563659668,42.966487884521484,-91.69623565673828,-80.34422302246094,0.0,0.0,-0.0,-0.0,0.3038322329521179,0.926145076751709,-0.14294396340847015,6.6991400718688965,0.2899399995803833,-1.2360600233078003,0.0,543665.0
1.0,25.83797836303711,36.94610595703125,-60.26968765258789,-55.09233474731445,0.0,0.0,-0.0,-0.0,0.3038322329521179,0.926145076751709,-0.14294396340847015,6.6991400718688965,0.2899399995803833,-1.2360600233078003,0.0,543666.0
1.0,-26.064823150634766,11.553680419921875,5.552064418792725,-1.6573339700698853,0.0,0.0,-0.0,-0.0,0.3038322329521179,0.926145076751709,-0.14294396340847015,6.6991400718688965,0.2899399995803833,-1.2360600233078003,0.0,543667.0
1.0,-64.57581329345703,-19.414039611816406,69.08425903320312,51.48484420776367,0.0,0.0,-0.0,-0.0,0.3038322329521179,0.926145076751709,-0.14294396340847015,6.6991400718688965,0.2899399995803833,-1.2360600233078003,0.0,543668.0
1.0,-67.49464416503906,-39.3845329284668,95.947021484375,74.84061431884766,0.0,0.0,-0.0,-0.0,0.3038322329521179,0.926145076751709,-0.14294396340847015,6.6991400718688965,0.2899399995803833,-1.2360600233078003,0.0,543669.0
1.0,-37.53321075439453,-37.802494049072266,79.2393798828125,55.37192153930664,0.0,0.0,-0.0,-0.0,0.3038322329521179,0.926145076751709,-0.14294396340847015,6.6991400718688965,0.2899399995803833,-1.2360600233078003,0.0,543670.0
1.0,5.877136707305908,-15.755873680114746,33.84041213989258,5.4884257316589355,0.0,0.0,-0.0,-0.0,0.3038322329521179,0.926145076751709,-0.14294396340847015,6.6991400718688965,0.2899399995803833,-1.2360600233078003,0.0,543671.0
1.0,43.987003326416016,14.820843696594238,-21.279891967773438,-45.5802116394043,0.0,0.0,-0.0,-0.0,0.3074333071708679,0.929074764251709,-0.14355431497097015,3.84552001953125,0.030519999563694,-2.1821799278259277,0.0,543672.0
1.0,65.21607971191406,37.08295440673828,-64.9908447265625,-69.74796295166016,0.0,0.0,-0.0,-0.0,0.3074333071708679,0.929074764251709,-0.14355431497097015,3.84552001953125,0.030519999563694,-2.1821799278259277,0.0,543673.0
1.0,61.0111083984375,38.48938751220703,-76.7503433227539,-55.171356201171875,0.0,0.0,-0.0,-0.0,0.3074333071708679,0.929074764251709,-0.14355431497097015,3.84552001953125,0.030519999563694,-2.1821799278259277,0.0,543674.0
1.0,27.834182739257812,18.342609405517578,-51.38227081298828,-9.40897274017334,0.0,0.0,-0.0,-0.0,0.3074333071708679,0.929074764251709,-0.14355431497097015,3.84552001953125,0.030519999563694,-2.1821799278259277,0.0,543675.0
1.0,-21.64471435546875,-12.294312477111816,-6.1886773109436035,45.92559051513672,0.0,0.0,-0.0,-0.0,0.3074333071708679,0.929074764251709,-0.14355431497097015,3.84552001953125,0.030519999563694,-2.1821799278259277,0.0,543676.0
1.0,-59.83489990234375,-36.86415100097656,33.451175689697266,80.09371185302734,0.0,0.0,-0.0,-0.0,0.3074333071708679,0.929074764251709,-0.14355431497097015,3.84552001953125,0.030519999563694,-2.1821799278259277,0.0,543677.0
1.0,-64.75315856933594,-41.82925033569336,51.276912689208984,68.5693588256836,0.0,0.0,-0.0,-0.0,0.3074333071708679,0.929074764251709,-0.14355431497097015,3.84552001953125,0.030519999563694,-2.1821799278259277,0.0,543678.0
1.0,-34.80780029296875,-24.12331199645996,39.79839324951172,15.243589401245117,0.0,0.0,-0.0,-0.0,0.3074333071708679,0.929074764251709,-0.14355431497097015,3.84552001953125,0.030519999563694,-2.1821799278259277,0.0,543679.0
1.0,12.238791465759277,6.97068977355957,1.9154695272445679,-48.105796813964844,0.0,0.0,-0.0,-0.0,0.3074333071708679,0.929074764251709,-0.14355431497097015,3.84552001953125,0.030519999563694,-2.1821799278259277,0.0,543680.0
1.0,47.86127853393555,34.73607635498047,-38.24272918701172,-85.04714965820312,0.0,0.0,-0.0,-0.0,0.3074333071708679,0.929074764251709,-0.14355431497097015,3.84552001953125,0.030519999563694,-2.1821799278259277,0.0,543681.0
1.0,50.75340270996094,44.27479553222656,-48.34645462036133,-76.15396118164062,0.0,0.0,-0.0,-0.0,0.3060294985771179,0.932797908782959,-0.14294396340847015,4.3643598556518555,-0.7935199737548828,-1.1750199794769287,0.0,543682.0
1.0,23.290311813354492,30.78396987915039,-20.470462799072266,-27.723098754882812,0.0,0.0,-0.0,0.0,0.3060294985771179,0.932797908782959,-0.14294396340847015,4.3643598556518555,-0.7935199737548828,-1.1750199794769287,0.0,543683.0
1.0,-13.677041053771973,1.575842022895813,22.882638931274414,33.41496276855469,0.0,0.0,-0.0,0.0,0.3060294985771179,0.932797908782959,-0.14294396340847015,4.3643598556518555,-0.7935199737548828,-1.1750199794769287,0.0,543684.0
1.0,-38.83732986450195,-27.902563095092773,52.25719451904297,74.5079574584961,0.0,0.0,-0.0,0.0,0.3060294985771179,0.932797908782959,-0.14294396340847015,4.3643598556518555,-0.7935199737548828,-1.1750199794769287,0.0,543685.0
1.0,-41.352352142333984,-41.885963439941406,50.93877410888672,74.16753387451172,0.0,0.0,-0.0,0.0,0.3060294985771179,0.932797908782959,-0.14294396340847015,4.3643598556518555,-0.7935199737548828,-1.1750199794769287,0.0,543686.0
1.0,-21.993741989135742,-33.034393310546875,20.752824783325195,33.83655548095703,0.0,0.0,-0.0,0.0,0.3060294985771179,0.932797908782959,-0.14294396340847015,4.3643598556518555,-0.7935199737548828,-1.1750199794769287,0.0,543687.0
1.0,9.49220085144043,-6.521382808685303,-21.944480895996094,-23.475807189941406,0.0,0.0,-0.0,0.0,0.3060294985771179,0.932797908782959,-0.14294396340847015,4.3643598556518555,-0.7935199737548828,-1.1750199794769287,0.0,543688.0
1.0,37.850040435791016,22.868988037109375,-55.96053695678711,-65.55192565917969,0.0,0.0,-0.0,0.0,0.3060294985771179,0.932797908782959,-0.14294396340847015,4.3643598556518555,-0.7935199737548828,-1.1750199794769287,0.0,543689.0
1.0,48.03184127807617,38.747840881347656,-63.75630187988281,-69.5472640991211,0.0,0.0,-0.0,0.0,0.3060294985771179,0.932797908782959,-0.14294396340847015,4.3643598556518555,-0.7935199737548828,-1.1750199794769287,0.0,543690.0
1.0,32.12690353393555,32.476905822753906,-38.43456268310547,-34.599483489990234,0.0,0.0,-0.0,0.0,0.3060294985771179,0.932797908782959,-0.14294396340847015,4.3643598556518555,-0.7935199737548828,-1.1750199794769287,0.0,543691.0
1.0,-4.197601795196533,7.74348258972168,10.441393852233887,20.79772186279297,0.0,0.0,-0.0,0.0,0.3050529360771179,0.935300350189209,-0.14410363137722015,5.051060199737549,-0.6866999864578247,-0.2136400043964386,0.0,543692.0
1.0,-40.079071044921875,-21.946063995361328,57.784393310546875,67.69072723388672,0.0,0.0,-0.0,0.0,0.3050529360771179,0.935300350189209,-0.14410363137722015,5.051060199737549,-0.6866999864578247,-0.2136400043964386,0.0,543693.0
1.0,-52.310306549072266,-40.028995513916016,75.11678314208984,79.15708923339844,0.0,0.0,-0.0,0.0,0.3050529360771179,0.935300350189209,-0.14410363137722015,5.051060199737549,-0.6866999864578247,-0.2136400043964386,0.0,543694.0
1.0,-34.119956970214844,-35.79066848754883,49.84038162231445,46.79036331176758,0.0,0.0,-0.0,0.0,0.3050529360771179,0.935300350189209,-0.14410363137722015,5.051060199737549,-0.6866999864578247,-0.2136400043964386,0.0,543695.0
1.0,2.472637891769409,-11.10279369354248,-4.937451362609863,-13.504400253295898,0.0,0.0,-0.0,0.0,0.3050529360771179,0.935300350189209,-0.14410363137722015,5.051060199737549,-0.6866999864578247,-0.2136400043964386,0.0,543696.0
1.0,37.736106872558594,20.419715881347656,-58.62248611450195,-70.28620910644531,0.0,0.0,-0.0,0.0,0.3050529360771179,0.935300350189209,-0.14410363137722015,5.051060199737549,-0.6866999864578247,-0.2136400043964386,0.0,543697.0
1.0,53.01268005371094,41.273258209228516,-79.63275146484375,-91.56329345703125,0.0,0.0,-0.0,0.0,0.3050529360771179,0.935300350189209,-0.14410363137722015,5.051060199737549,-0.6866999864578247,-0.2136400043964386,0.0,543698.0
1.0,38.75566864013672,40.049991607666016,-54.829071044921875,-63.354679107666016,0.0,0.0,-0.0,0.0,0.3050529360771179,0.935300350189209,-0.14410363137722015,5.051060199737549,-0.6866999864578247,-0.2136400043964386,0.0,543699.0
1.0,1.0283393859863281,17.52886390686035,0.41851308941841125,-0.12686607241630554,0.0,0.0,-0.0,0.0,0.3050529360771179,0.935300350189209,-0.14410363137722015,5.051060199737549,-0.6866999864578247,-0.2136400043964386,0.0,543700.0
1.0,-39.98360061645508,-14.486468315124512,55.36861038208008,63.87427520751953,0.0,0.0,-0.0,0.0,0.3050529360771179,0.935300350189209,-0.14410363137722015,5.051060199737549,-0.6866999864578247,-0.2136400043964386,0.0,543701.0
1.0,-59.4002571105957,-39.33511734008789,81.95975494384766,93.15135955810547,0.0,0.0,-0.0,0.0,0.3056632876396179,0.934689998626709,-0.14648400247097015,4.074419975280762,-0.5951399803161621,-0.8850799798965454,0.0,543702.0
1.0,-44.4892692565918,-43.782142639160156,64.82225036621094,71.78158569335938,0.0,0.0,-0.0,0.0,0.3056632876396179,0.934689998626709,-0.14648400247097015,4.074419975280762,-0.5951399803161621,-0.8850799798965454,0.0,543703.0
1.0,-5.235446453094482,-25.11722183227539,11.211134910583496,14.297394752502441,0.0,0.0,-0.0,0.0,0.3056632876396179,0.934689998626709,-0.14648400247097015,4.074419975280762,-0.5951399803161621,-0.8850799798965454,0.0,543704.0
1.0,34.933998107910156,7.292541980743408,-48.69003677368164,-48.03269958496094,0.0,0.0,-0.0,0.0,0.3056632876396179,0.934689998626709,-0.14648400247097015,4.074419975280762,-0.5951399803161621,-0.8850799798965454,0.0,543705.0
1.0,55.33917236328125,36.41305923461914,-80.89005279541016,-85.99864196777344,0.0,0.0,-0.0,0.0,0.3056632876396179,0.934689998626709,-0.14648400247097015,4.074419975280762,-0.5951399803161621,-0.8850799798965454,0.0,543706.0
1.0,46.927635192871094,46.28889465332031,-69.22985076904297,-80.74007415771484,0.0,0.0,-0.0,0.0,0.3056632876396179,0.934689998626709,-0.14648400247097015,4.074419975280762,-0.5951399803161621,-0.8850799798965454,0.0,543707.0
1.0,14.20883846282959,31.32006072998047,-21.18033218383789,-32.697181701660156,0.0,0.0,-0.0,0.0,0.3056632876396179,0.934689998626709,-0.14648400247097015,4.074419975280762,-0.5951399803161621,-0.8850799798965454,0.0,543708.0
1.0,-27.20914649963379,-0.5603165030479431,38.52866744995117,34.52167510986328,0.0,0.0,-0.0,0.0,0.3056632876396179,0.934689998626709,-0.14648400247097015,4.074419975280762,-0.5951399803161621,-0.8850799798965454,0.0,543709.0
1.0,-55.4606819152832,-32.31389236450195,78.81570434570312,84.36486053466797,0.0,0.0,-0.0,0.0,0.3056632876396179,0.934689998626709,-0.14648400247097015,4.074419975280762,-0.5951399803161621,-0.8850799798965454,0.0,543710.0
1.0,-51.66014862060547,-46.746212005615234,77.31929779052734,87.61944580078125,0.0,0.0,-0.0,0.0,0.3056632876396179,0.934689998626709,-0.14648400247097015,4.074419975280762,-0.5951399803161621,-0.8850799798965454,0.0,543711.0
1.0,-14.715861320495605,-36.17342758178711,32.66423034667969,43.1730842590332,0.0,0.0,-0.0,0.0,0.3071891665458679,0.930234432220459,-0.14813195168972015,1.8312000036239624,0.122079998254776,-3.494539976119995,0.0,543712.0
1.0,32.614986419677734,-6.6994452476501465,-33.42941665649414,-21.1901798248291,0.0,0.0,-0.0,0.0,0.3071891665458679,0.930234432220459,-0.14813195168972015,1.8312000036239624,0.122079998254776,-3.494539976119995,0.0,543713.0
1.0,60.35599899291992,25.729114532470703,-85.2727279663086,-70.0634994506836,0.0,0.0,-0.0,0.0,0.3071891665458679,0.930234432220459,-0.14813195168972015,1.8312000036239624,0.122079998254776,-3.494539976119995,0.0,543714.0
1.0,53.88856887817383,44.084739685058594,-92.13142395019531,-81.84638214111328,0.0,0.0,-0.0,0.0,0.3071891665458679,0.930234432220459,-0.14813195168972015,1.8312000036239624,0.122079998254776,-3.494539976119995,0.0,543715.0
1.0,18.35303497314453,39.231929779052734,-47.140968322753906,-55.24100112915039,0.0,0.0,-0.0,0.0,0.3071891665458679,0.930234432220459,-0.14813195168972015,1.8312000036239624,0.122079998254776,-3.494539976119995,0.0,543716.0
1.0,-28.00322151184082,14.334490776062012,26.493083953857422,-3.787789821624756,0.0,0.0,-0.0,0.0,0.3071891665458679,0.930234432220459,-0.14813195168972015,1.8312000036239624,0.122079998254776,-3.494539976119995,0.0,543717.0
1.0,-60.78794479370117,-17.37083625793457,87.33248901367188,49.19886016845703,0.0,0.0,-0.0,0.0,0.3071891665458679,0.930234432220459,-0.14813195168972015,1.8312000036239624,0.122079998254776,-3.494539976119995,0.0,543718.0
1.0,-61.40433120727539,-39.208824157714844,100.07671356201172,76.99732971191406,0.0,0.0,-0.0,0.0,0.3071891665458679,0.930234432220459,-0.14813195168972015,1.8312000036239624,0.122079998254776,-3.494539976119995,0.0,543719.0
1.0,-28.177074432373047,-39.61601638793945,57.05596923828125,63.71337127685547,0.0,0.0,-0.0,0.0,0.3071891665458679,0.930234432220459,-0.14813195168972015,1.8312000036239624,0.122079998254776,-3.494539976119995,0.0,543720.0
1.0,19.87140655517578,-18.614471435546875,-15.367383003234863,15.873605728149414,0.0,0.0,-0.0,0.0,0.3071891665458679,0.930234432220459,-0.14813195168972015,1.8312000036239624,0.122079998254776,-3.494539976119995,0.0,543721.0
1.0,51.4386100769043,12.073432922363281,-71.60577392578125,-39.38373565673828,0.0,0.0,-0.0,0.0,0.3080436587333679,0.926511287689209,-0.14739952981472015,3.8302600383758545,0.6409199833869934,-5.020540237426758,0.0,543722.0
1.0,49.95170211791992,35.31013107299805,-82.89753723144531,-69.59933471679688,0.0,0.0,-0.0,0.0,0.3080436587333679,0.926511287689209,-0.14739952981472015,3.8302600383758545,0.6409199833869934,-5.020540237426758,0.0,543723.0
1.0,27.21866226196289,38.31174850463867,-57.41752243041992,-58.321022033691406,0.0,0.0,-0.0,0.0,0.3080436587333679,0.926511287689209,-0.14739952981472015,3.8302600383758545,0.6409199833869934,-5.020540237426758,0.0,543724.0
1.0,0.2779051661491394,19.971073150634766,-15.63326358795166,-15.087370872497559,0.0,0.0,-0.0,0.0,0.3080436587333679,0.926511287689209,-0.14739952981472015,3.8302600383758545,0.6409199833869934,-5.020540237426758,0.0,543725.0
1.0,-24.46883201599121,-9.295809745788574,30.881967544555664,33.92606735229492,0.0,0.0,-0.0,0.0,0.3080436587333679,0.926511287689209,-0.14739952981472015,3.8302600383758545,0.6409199833869934,-5.020540237426758,0.0,543726.0
1.0,-40.55510330200195,-33.42717742919922,68.90404510498047,61.703102111816406,0.0,0.0,-0.0,0.0,0.3080436587333679,0.926511287689209,-0.14739952981472015,3.8302600383758545,0.6409199833869934,-5.020540237426758,0.0,543727.0
1.0,-38.22626876831055,-39.03470230102539,77.67427825927734,53.407005310058594,0.0,0.0,-0.0,0.0,0.3080436587333679,0.926511287689209,-0.14739952981472015,3.8302600383758545,0.6409199833869934,-5.020540237426758,0.0,543728.0
1.0,-13.714888572692871,-22.899089813232422,42.42266845703125,14.422417640686035,0.0,0.0,-0.0,0.0,0.3080436587333679,0.926511287689209,-0.14739952981472015,3.8302600383758545,0.6409199833869934,-5.020540237426758,0.0,543729.0
1.0,23.5902156829834,6.178429126739502,-24.609071731567383,-32.472328186035156,0.0,0.0,-0.0,0.0,0.3080436587333679,0.926511287689209,-0.14739952981472015,3.8302600383758545,0.6409199833869934,-5.020540237426758,0.0,543730.0
1.0,50.979164123535156,32.14655685424805,-79.76871490478516,-60.67179870605469,0.0,0.0,-0.0,0.0,0.3080436587333679,0.926511287689209,-0.14739952981472015,3.8302600383758545,0.6409199833869934,-5.020540237426758,0.0,543731.0
1.0,47.22631072998047,40.5527458190918,-81.13444519042969,-55.16563415527344,0.0,0.0,-0.0,0.0,0.3068229556083679,0.932858943939209,-0.14471398293972015,1.7396399974822998,-0.6256600022315979,-4.8069000244140625,0.0,543732.0
1.0,13.147351264953613,26.863595962524414,-27.605846405029297,-19.73866081237793,0.0,0.0,-0.0,0.0,0.3068229556083679,0.932858943939209,-0.14471398293972015,1.7396399974822998,-0.6256600022315979,-4.8069000244140625,0.0,543733.0
1.0,-28.936800003051758,-1.3944873809814453,41.84567642211914,27.1121768951416,0.0,0.0,-0.0,0.0,0.3068229556083679,0.932858943939209,-0.14471398293972015,1.7396399974822998,-0.6256600022315979,-4.8069000244140625,0.0,543734.0
1.0,-55.572227478027344,-29.121187210083008,81.34485626220703,61.64582824707031,0.0,0.0,-0.0,0.0,0.3068229556083679,0.932858943939209,-0.14471398293972015,1.7396399974822998,-0.6256600022315979,-4.8069000244140625,0.0,543735.0
1.0,-55.192230224609375,-41.446353912353516,68.78831481933594,65.76057434082031,0.0,0.0,0.0,0.0,0.3068229556083679,0.932858943939209,-0.14471398293972015,1.7396399974822998,-0.6256600022315979,-4.8069000244140625,0.0,543736.0
1.0,-28.56570053100586,-31.637697219848633,16.196483612060547,36.89925003051758,0.0,0.0,0.0,0.0,0.3068229556083679,0.932858943939209,-0.14471398293972015,1.7396399974822998,-0.6256600022315979,-4.8069000244140625,0.0,543737.0
1.0,12.598270416259766,-4.772598743438721,-42.512107849121094,-11.216967582702637,0.0,0.0,0.0,0.0,0.3068229556083679,0.932858943939209,-0.14471398293972015,1.7396399974822998,-0.6256600022315979,-4.8069000244140625,0.0,543738.0
1.0,49.15732192993164,24.937721252441406,-75.16777038574219,-55.780731201171875,0.0,0.0,0.0,0.0,0.3068229556083679,0.932858943939209,-0.14471398293972015,1.7396399974822998,-0.6256600022315979,-4.8069000244140625,0.0,543739.0
1.0,62.87628173828125,41.5075569152832,-67.90576171875,-74.01885223388672,0.0,0.0,0.0,0.0,0.3068229556083679,0.932858943939209,-0.14471398293972015,1.7396399974822998,-0.6256600022315979,-4.8069000244140625,0.0,543740.0
1.0,46.82599639892578,35.921810150146484,-27.865907669067383,-55.90163040161133,0.0,0.0,0.0,0.0,0.3068229556083679,0.932858943939209,-0.14471398293972015,1.7396399974822998,-0.6256600022315979,-4.8069000244140625,0.0,543741.0
1.0,8.077303886413574,11.080160140991211,25.4444637298584,-9.421836853027344,0.0,0.0,0.0,0.0,0.3056022524833679,0.938474178314209,-0.14044153690338135,1.0376800298690796,-0.9156000018119812,-2.868880033493042,0.0,543742.0
1.0,-35.80548858642578,-19.874141693115234,68.80198669433594,44.78681182861328,0.0,0.0,0.0,0.0,0.3056022524833679,0.938474178314209,-0.14044153690338135,1.0376800298690796,-0.9156000018119812,-2.868880033493042,0.0,543743.0
1.0,-61.18343734741211,-40.09811782836914,79.31327056884766,78.13639068603516,0.0,0.0,0.0,0.0,0.3056022524833679,0.938474178314209,-0.14044153690338135,1.0376800298690796,-0.9156000018119812,-2.868880033493042,0.0,543744.0
1.0,-53.50230026245117,-38.07228469848633,47.04792785644531,68.16719055175781,0.0,0.0,0.0,0.0,0.3056022524833679,0.938474178314209,-0.14044153690338135,1.0376800298690796,-0.9156000018119812,-2.868880033493042,0.0,543745.0
1.0,-19.9582576751709,-14.655928611755371,-11.951011657714844,18.555418014526367,0.0,0.0,0.0,0.0,0.3056022524833679,0.938474178314209,-0.14044153690338135,1.0376800298690796,-0.9156000018119812,-2.868880033493042,0.0,543746.0
1.0,19.47890281677246,17.09720230102539,-64.51551055908203,-41.753841400146484,0.0,0.0,0.0,0.0,0.3056022524833679,0.938474178314209,-0.14044153690338135,1.0376800298690796,-0.9156000018119812,-2.868880033493042,0.0,543747.0
1.0,46.60435104370117,39.368194580078125,-83.08554077148438,-78.4784164428711,0.0,0.0,0.0,0.0,0.3056022524833679,0.938474178314209,-0.14044153690338135,1.0376800298690796,-0.9156000018119812,-2.868880033493042,0.0,543748.0
1.0,51.04704284667969,39.796722412109375,-60.637752532958984,-71.38555145263672,0.0,0.0,0.0,0.0,0.3056022524833679,0.938474178314209,-0.14044153690338135,1.0376800298690796,-0.9156000018119812,-2.868880033493042,0.0,543749.0
1.0,31.278032302856445,18.243043899536133,-10.096015930175781,-23.981740951538086,0.0,0.0,0.0,0.0,0.3056022524833679,0.938474178314209,-0.14044153690338135,1.0376800298690796,-0.9156000018119812,-2.868880033493042,0.0,543750.0
1.0,-4.381155014038086,-13.793998718261719,45.870208740234375,37.487709045410156,0.0,0.0,0.0,0.0,0.3056022524833679,0.938474178314209,-0.14044153690338135,1.0376800298690796,-0.9156000018119812,-2.868880033493042,0.0,543751.0
1.0,-36.514949798583984,-39.248626708984375,81.97801971435547,77.27188873291016,0.0,0.0,0.0,0.0,0.3054801821708679,0.936948299407959,-0.13745081424713135,3.631880044937134,-1.0987199544906616,-1.922760009765625,0.0,543752.0
1.0,-43.904296875,-44.22040939331055,77.6713638305664,73.1421890258789,0.0,0.0,0.0,0.0,0.3054801821708679,0.936948299407959,-0.13745081424713135,3.631880044937134,-1.0987199544906616,-1.922760009765625,0.0,543753.0
1.0,-22.29591941833496,-25.58355712890625,33.098045349121094,29.623491287231445,0.0,0.0,0.0,0.0,0.3054801821708679,0.936948299407959,-0.13745081424713135,3.631880044937134,-1.0987199544906616,-1.922760009765625,0.0,543754.0
1.0,10.076557159423828,7.261174201965332,-26.812068939208984,-28.08347511291504,0.0,0.0,0.0,0.0,0.3054801821708679,0.936948299407959,-0.13745081424713135,3.631880044937134,-1.0987199544906616,-1.922760009765625,0.0,543755.0
1.0,29.81878662109375,36.79549026489258,-71.06715393066406,-68.47930145263672,0.0,0.0,0.0,0.0,0.3054801821708679,0.936948299407959,-0.13745081424713135,3.631880044937134,-1.0987199544906616,-1.922760009765625,0.0,543756.0
1.0,27.206602096557617,46.665016174316406,-79.22455596923828,-71.00163269042969,0.0,0.0,0.0,0.0,0.3054801821708679,0.936948299407959,-0.13745081424713135,3.631880044937134,-1.0987199544906616,-1.922760009765625,0.0,543757.0
1.0,6.659374237060547,31.675010681152344,-46.02705383300781,-36.683895111083984,0.0,0.0,0.0,0.0,0.3054801821708679,0.936948299407959,-0.13745081424713135,3.631880044937134,-1.0987199544906616,-1.922760009765625,0.0,543758.0
1.0,-19.69451141357422,0.41166865825653076,13.374853134155273,15.863234519958496,0.0,0.0,0.0,0.0,0.3054801821708679,0.936948299407959,-0.13745081424713135,3.631880044937134,-1.0987199544906616,-1.922760009765625,0.0,543759.0
1.0,-35.08819580078125,-30.44597816467285,64.595947265625,59.565834045410156,0.0,0.0,0.0,0.0,0.3054801821708679,0.936948299407959,-0.13745081424713135,3.631880044937134,-1.0987199544906616,-1.922760009765625,0.0,543760.0
1.0,-27.994617462158203,-44.82035446166992,75.87313842773438,70.3924331665039,0.0,0.0,0.0,0.0,0.3054801821708679,0.936948299407959,-0.13745081424713135,3.631880044937134,-1.0987199544906616,-1.922760009765625,0.0,543761.0
1.0,-2.772145986557007,-35.361026763916016,42.33514404296875,42.072654724121094,0.0,0.0,0.0,0.0,0.3034660220146179,0.934812068939209,-0.13745081424713135,4.669559955596924,-1.2665799856185913,-1.2208000421524048,0.0,543762.0
1.0,25.204994201660156,-7.35327672958374,-13.980381965637207,-9.236309051513672,0.0,0.0,0.0,0.0,0.3034660220146179,0.934812068939209,-0.13745081424713135,4.669559955596924,-1.2665799856185913,-1.2208000421524048,0.0,543763.0
1.0,41.97843933105469,24.09946060180664,-60.10202407836914,-55.41606521606445,0.0,0.0,0.0,0.0,0.3034660220146179,0.934812068939209,-0.13745081424713135,4.669559955596924,-1.2665799856185913,-1.2208000421524048,0.0,543764.0
1.0,39.72682189941406,42.1690673828125,-68.81703186035156,-72.3753433227539,0.0,0.0,0.0,-0.0,0.3034660220146179,0.934812068939209,-0.13745081424713135,4.669559955596924,-1.2665799856185913,-1.2208000421524048,0.0,543765.0
1.0,18.205774307250977,37.46916198730469,-36.27061080932617,-51.55421447753906,0.0,0.0,0.0,-0.0,0.3034660220146179,0.934812068939209,-0.13745081424713135,4.669559955596924,-1.2665799856185913,-1.2208000421524048,0.0,543766.0
1.0,-13.633543968200684,12.752640724182129,14.66436767578125,-1.6271134614944458,0.0,0.0,0.0,-0.0,0.3034660220146179,0.934812068939209,-0.13745081424713135,4.669559955596924,-1.2665799856185913,-1.2208000421524048,0.0,543767.0
1.0,-42.468379974365234,-18.958967208862305,54.63065719604492,54.46495819091797,0.0,0.0,0.0,-0.0,0.3034660220146179,0.934812068939209,-0.13745081424713135,4.669559955596924,-1.2665799856185913,-1.2208000421524048,0.0,543768.0
1.0,-54.909427642822266,-40.75192642211914,64.66001892089844,85.7894515991211,0.0,0.0,0.0,-0.0,0.3034660220146179,0.934812068939209,-0.13745081424713135,4.669559955596924,-1.2665799856185913,-1.2208000421524048,0.0,543769.0
1.0,-39.788490295410156,-40.63868713378906,37.42942428588867,70.45191955566406,0.0,0.0,0.0,-0.0,0.3034660220146179,0.934812068939209,-0.13745081424713135,4.669559955596924,-1.2665799856185913,-1.2208000421524048,0.0,543770.0
1.0,1.091412901878357,-18.435951232910156,-16.547176361083984,12.719273567199707,0.0,0.0,0.0,-0.0,0.3034660220146179,0.934812068939209,-0.13745081424713135,4.669559955596924,-1.2665799856185913,-1.2208000421524048,0.0,543771.0
1.0,45.645591735839844,14.01424503326416,-64.47184753417969,-56.012298583984375,0.0,0.0,0.0,-0.0,0.3023673892021179,0.930966854095459,-0.14184534549713135,7.294280052185059,-2.1669199466705322,-1.6175600290298462,0.0,543772.0
1.0,65.63025665283203,38.991798400878906,-72.88314056396484,-94.35398864746094,0.0,0.0,0.0,-0.0,0.3023673892021179,0.930966854095459,-0.14184534549713135,7.294280052185059,-2.1669199466705322,-1.6175600290298462,0.0,543773.0
1.0,49.787567138671875,42.842079162597656,-36.300148010253906,-79.43536376953125,0.0,0.0,0.0,-0.0,0.3023673892021179,0.930966854095459,-0.14184534549713135,7.294280052185059,-2.1669199466705322,-1.6175600290298462,0.0,543774.0
1.0,7.849348068237305,24.049758911132812,21.955730438232422,-21.828170776367188,0.0,0.0,0.0,-0.0,0.3023673892021179,0.930966854095459,-0.14184534549713135,7.294280052185059,-2.1669199466705322,-1.6175600290298462,0.0,543775.0
1.0,-40.864585876464844,-6.747621059417725,70.15550994873047,45.7625732421875,0.0,0.0,0.0,-0.0,0.3023673892021179,0.930966854095459,-0.14184534549713135,7.294280052185059,-2.1669199466705322,-1.6175600290298462,0.0,543776.0
1.0,-72.20742797851562,-33.257164001464844,83.91688537597656,86.82717895507812,0.0,0.0,0.0,-0.0,0.3023673892021179,0.930966854095459,-0.14184534549713135,7.294280052185059,-2.1669199466705322,-1.6175600290298462,0.0,543777.0
1.0,-66.58253479003906,-41.83140563964844,54.75397872924805,79.17582702636719,0.0,0.0,0.0,-0.0,0.3023673892021179,0.930966854095459,-0.14184534549713135,7.294280052185059,-2.1669199466705322,-1.6175600290298462,0.0,543778.0
1.0,-25.487808227539062,-28.24520492553711,-5.097533226013184,28.771337509155273,0.0,0.0,0.0,-0.0,0.3023673892021179,0.930966854095459,-0.14184534549713135,7.294280052185059,-2.1669199466705322,-1.6175600290298462,0.0,543779.0
1.0,28.96593475341797,0.16763682663440704,-66.4583969116211,-34.82472229003906,0.0,0.0,0.0,-0.0,0.3023673892021179,0.930966854095459,-0.14184534549713135,7.294280052185059,-2.1669199466705322,-1.6175600290298462,0.0,543780.0
1.0,68.37488555908203,27.88936424255371,-96.68679809570312,-76.92987060546875,0.0,0.0,0.0,-0.0,0.3023673892021179,0.930966854095459,-0.14184534549713135,7.294280052185059,-2.1669199466705322,-1.6175600290298462,0.0,543781.0
1.0,72.7767105102539,39.52248764038086,-78.56443786621094,-76.47679901123047,0.0,0.0,0.0,-0.0,0.3020011782646179,0.929563045501709,-0.14886435866355896,10.865119934082031,-1.922760009765625,-0.3967599868774414,0.0,543782.0
1.0,41.429443359375,28.904062271118164,-21.209508895874023,-34.91783905029297,0.0,0.0,0.0,-0.0,0.3020011782646179,0.929563045501709,-0.14886435866355896,10.865119934082031,-1.922760009765625,-0.3967599868774414,0.0,543783.0
1.0,-7.400097370147705,2.2983031272888184,46.299678802490234,25.89738655090332,0.0,0.0,0.0,-0.0,0.3020011782646179,0.929563045501709,-0.14886435866355896,10.865119934082031,-1.922760009765625,-0.3967599868774414,0.0,543784.0
1.0,-47.95795822143555,-25.43641471862793,89.87875366210938,73.21416473388672,0.0,0.0,0.0,-0.0,0.3020011782646179,0.929563045501709,-0.14886435866355896,10.865119934082031,-1.922760009765625,-0.3967599868774414,0.0,543785.0
1.0,-61.36875915527344,-38.803348541259766,86.2405776977539,81.45838928222656,0.0,0.0,0.0,-0.0,0.3020011782646179,0.929563045501709,-0.14886435866355896,10.865119934082031,-1.922760009765625,-0.3967599868774414,0.0,543786.0
1.0,-42.895469665527344,-30.234920501708984,37.466163635253906,46.62263107299805,0.0,0.0,0.0,-0.0,0.3020011782646179,0.929563045501709,-0.14886435866355896,10.865119934082031,-1.922760009765625,-0.3967599868774414,0.0,543787.0
1.0,-2.9028866291046143,-4.2798614501953125,-27.546249389648438,-14.23537826538086,0.0,0.0,0.0,-0.0,0.3020011782646179,0.929563045501709,-0.14886435866355896,10.865119934082031,-1.922760009765625,-0.3967599868774414,0.0,543788.0
1.0,35.02255630493164,24.762266159057617,-71.0327377319336,-69.8927001953125,0.0,0.0,0.0,-0.0,0.3020011782646179,0.929563045501709,-0.14886435866355896,10.865119934082031,-1.922760009765625,-0.3967599868774414,0.0,543789.0
1.0,47.5202522277832,40.45852279663086,-70.79261779785156,-88.25348663330078,0.0,0.0,0.0,-0.0,0.3020011782646179,0.929563045501709,-0.14886435866355896,10.865119934082031,-1.922760009765625,-0.3967599868774414,0.0,543790.0
1.0,29.64393424987793,33.86270523071289,-32.32698440551758,-57.60481262207031,0.0,0.0,0.0,-0.0,0.3020011782646179,0.929563045501709,-0.14886435866355896,10.865119934082031,-1.922760009765625,-0.3967599868774414,0.0,543791.0
1.0,-5.081564903259277,8.616480827331543,19.924848556518555,3.8649840354919434,0.0,0.0,0.0,-0.0,0.3040153384208679,0.933347225189209,-0.15521200001239777,11.84175968170166,-1.7854199409484863,1.6328200101852417,0.0,543792.0
1.0,-36.38883972167969,-21.75343894958496,58.677616119384766,61.15974807739258,0.0,0.0,0.0,-0.0,0.3040153384208679,0.933347225189209,-0.15521200001239777,11.84175968170166,-1.7854199409484863,1.6328200101852417,0.0,543793.0
1.0,-45.3115234375,-41.014793395996094,63.89613723754883,83.72029876708984,0.0,0.0,0.0,-0.0,0.3040153384208679,0.933347225189209,-0.15521200001239777,11.84175968170166,-1.7854199409484863,1.6328200101852417,0.0,543794.0
1.0,-24.779409408569336,-38.50239944458008,31.156570434570312,61.18509292602539,0.0,0.0,0.0,-0.0,0.3040153384208679,0.933347225189209,-0.15521200001239777,11.84175968170166,-1.7854199409484863,1.6328200101852417,0.0,543795.0
1.0,12.718793869018555,-15.072250366210938,-22.44754981994629,7.208883762359619,0.0,0.0,0.0,-0.0,0.3040153384208679,0.933347225189209,-0.15521200001239777,11.84175968170166,-1.7854199409484863,1.6328200101852417,0.0,543796.0
1.0,44.04801559448242,17.012407302856445,-64.80371856689453,-49.7179069519043,0.0,0.0,0.0,-0.0,0.3040153384208679,0.933347225189209,-0.15521200001239777,11.84175968170166,-1.7854199409484863,1.6328200101852417,0.0,543797.0
1.0,50.882266998291016,40.3321647644043,-69.49005126953125,-80.19725036621094,0.0,0.0,0.0,-0.0,0.3040153384208679,0.933347225189209,-0.15521200001239777,11.84175968170166,-1.7854199409484863,1.6328200101852417,0.0,543798.0
1.0,28.872974395751953,42.00241470336914,-34.26581573486328,-67.76119232177734,0.0,0.0,0.0,-0.0,0.3040153384208679,0.933347225189209,-0.15521200001239777,11.84175968170166,-1.7854199409484863,1.6328200101852417,0.0,543799.0
1.0,-9.325093269348145,21.094100952148438,19.106863021850586,-18.330297470092773,0.0,0.0,0.0,-0.0,0.3040153384208679,0.933347225189209,-0.15521200001239777,11.84175968170166,-1.7854199409484863,1.6328200101852417,0.0,543800.0
1.0,-40.60163497924805,-11.339561462402344,60.36192321777344,42.032493591308594,0.0,0.0,0.0,-0.0,0.3040153384208679,0.933347225189209,-0.15521200001239777,11.84175968170166,-1.7854199409484863,1.6328200101852417,0.0,543801.0
1.0,-47.722408294677734,-38.15298080444336,69.70630645751953,79.95515441894531,0.0,0.0,0.0,-0.0,0.3049919009208679,0.935544490814209,-0.15747030079364777,10.193679809570312,-0.061039999127388,2.10588002204895,0.0,543802.0
1.0,-30.367477416992188,-44.75778579711914,46.36076736450195,74.00931549072266,0.0,0.0,0.0,-0.0,0.3049919009208679,0.935544490814209,-0.15747030079364777,10.193679809570312,-0.061039999127388,2.10588002204895,0.0,543803.0
1.0,-0.14647038280963898,-27.189971923828125,2.1754815578460693,28.419780731201172,0.0,0.0,0.0,-0.0,0.3049919009208679,0.935544490814209,-0.15747030079364777,10.193679809570312,-0.061039999127388,2.10588002204895,0.0,543804.0
1.0,28.648229598999023,5.4024271965026855,-45.289764404296875,-31.493175506591797,0.0,0.0,0.0,-0.0,0.3049919009208679,0.935544490814209,-0.15747030079364777,10.193679809570312,-0.061039999127388,2.10588002204895,0.0,543805.0
1.0,42.56577682495117,35.362815856933594,-74.37067413330078,-74.07283020019531,0.0,0.0,0.0,-0.0,0.3049919009208679,0.935544490814209,-0.15747030079364777,10.193679809570312,-0.061039999127388,2.10588002204895,0.0,543806.0
1.0,33.96784973144531,46.22544860839844,-67.6511001586914,-75.92353057861328,0.0,0.0,0.0,-0.0,0.3049919009208679,0.935544490814209,-0.15747030079364777,10.193679809570312,-0.061039999127388,2.10588002204895,0.0,543807.0
1.0,6.646468639373779,32.30967712402344,-25.469839096069336,-35.50042724609375,0.0,0.0,0.0,-0.0,0.3049919009208679,0.935544490814209,-0.15747030079364777,10.193679809570312,-0.061039999127388,2.10588002204895,0.0,543808.0
1.0,-25.89325523376465,1.4561632871627808,32.82518005371094,23.05789566040039,0.0,0.0,0.0,-0.0,0.3049919009208679,0.935544490814209,-0.15747030079364777,10.193679809570312,-0.061039999127388,2.10588002204895,0.0,543809.0
1.0,-46.836708068847656,-29.81057357788086,78.87284851074219,65.52545166015625,0.0,0.0,0.0,-0.0,0.3049919009208679,0.935544490814209,-0.15747030079364777,10.193679809570312,-0.061039999127388,2.10588002204895,0.0,543810.0
1.0,-42.900482177734375,-44.97250747680664,86.51465606689453,70.06794738769531,0.0,0.0,0.0,-0.0,0.3049919009208679,0.935544490814209,-0.15747030079364777,10.193679809570312,-0.061039999127388,2.10588002204895,0.0,543811.0
1.0,-13.967013359069824,-36.196842193603516,47.96937561035156,37.7891960144043,0.0,0.0,0.0,-0.0,0.3072502017021179,0.936154842376709,-0.15704305469989777,8.179360389709473,1.464959979057312,1.5717799663543701,0.0,543812.0
1.0,23.0413875579834,-8.435052871704102,-16.92401123046875,-11.421372413635254,0.0,0.0,0.0,-0.0,0.3072502017021179,0.936154842376709,-0.15704305469989777,8.179360389709473,1.464959979057312,1.5717799663543701,0.0,543813.0
1.0,47.68717956542969,23.28719711303711,-74.519287109375,-51.97669219970703,0.0,0.0,0.0,-0.0,0.3072502017021179,0.936154842376709,-0.15704305469989777,8.179360389709473,1.464959979057312,1.5717799663543701,0.0,543814.0
1.0,49.765953063964844,41.918487548828125,-96.76364135742188,-65.312744140625,0.0,0.0,0.0,-0.0,0.3072502017021179,0.936154842376709,-0.15704305469989777,8.179360389709473,1.464959979057312,1.5717799663543701,0.0,543815.0
1.0,28.541751861572266,37.73583221435547,-71.6969985961914,-46.138240814208984,0.0,0.0,0.0,-0.0,0.3072502017021179,0.936154842376709,-0.15704305469989777,8.179360389709473,1.464959979057312,1.5717799663543701,0.0,543816.0
1.0,-7.942737579345703,13.314473152160645,-9.4174165725708,-3.5908260345458984,0.0,0.0,0.0,-0.0,0.3072502017021179,0.936154842376709,-0.15704305469989777,8.179360389709473,1.464959979057312,1.5717799663543701,0.0,543817.0
1.0,-41.39039993286133,-18.195404052734375,59.89474868774414,41.41273880004883,0.0,0.0,-0.0,-0.0,0.3072502017021179,0.936154842376709,-0.15704305469989777,8.179360389709473,1.464959979057312,1.5717799663543701,0.0,543818.0
1.0,-52.78641128540039,-39.61164855957031,99.36600494384766,64.39212799072266,0.0,0.0,-0.0,-0.0,0.3072502017021179,0.936154842376709,-0.15704305469989777,8.179360389709473,1.464959979057312,1.5717799663543701,0.0,543819.0
1.0,-36.87907791137695,-38.93126678466797,86.642578125,50.959251403808594,0.0,0.0,-0.0,-0.0,0.3072502017021179,0.936154842376709,-0.15704305469989777,8.179360389709473,1.464959979057312,1.5717799663543701,0.0,543820.0
1.0,-4.664444446563721,-16.52823257446289,29.626466751098633,7.960763454437256,0.0,0.0,-0.0,-0.0,0.3072502017021179,0.936154842376709,-0.15704305469989777,8.179360389709473,1.464959979057312,1.5717799663543701,0.0,543821.0
1.0,27.0367488861084,14.963652610778809,-39.356224060058594,-39.07320785522461,0.0,0.0,-0.0,-0.0,0.30908122658729553,0.938107967376709,-0.15783651173114777,0.7477399706840515,3.280900001525879,-2.014319896697998,0.0,543822.0
1.0,44.653141021728516,37.82612991333008,-83.93768310546875,-62.61785125732422,0.0,0.0,-0.0,-0.0,0.30908122658729553,0.938107967376709,-0.15783651173114777,0.7477399706840515,3.280900001525879,-2.014319896697998,0.0,543823.0
1.0,40.6652717590332,39.54145812988281,-82.63357543945312,-49.2779655456543,0.0,0.0,-0.0,-0.0,0.30908122658729553,0.938107967376709,-0.15783651173114777,0.7477399706840515,3.280900001525879,-2.014319896697998,0.0,543824.0
1.0,15.940717697143555,19.83979034423828,-38.60405731201172,-5.699244022369385,0.0,0.0,-0.0,-0.0,0.30908122658729553,0.938107967376709,-0.15783651173114777,0.7477399706840515,3.280900001525879,-2.014319896697998,0.0,543825.0
1.0,-18.148292541503906,-10.29105281829834,23.447622299194336,43.75693893432617,0.0,0.0,-0.0,-0.0,0.30908122658729553,0.938107967376709,-0.15783651173114777,0.7477399706840515,3.280900001525879,-2.014319896697998,0.0,543826.0
1.0,-42.908199310302734,-34.98578643798828,69.6021499633789,69.76270294189453,0.0,0.0,-0.0,-0.0,0.30908122658729553,0.938107967376709,-0.15783651173114777,0.7477399706840515,3.280900001525879,-2.014319896697998,0.0,543827.0
1.0,-42.52077102661133,-41.23124313354492,73.33500671386719,56.32002639770508,0.0,0.0,-0.0,-0.0,0.30908122658729553,0.938107967376709,-0.15783651173114777,0.7477399706840515,3.280900001525879,-2.014319896697998,0.0,543828.0
1.0,-15.031563758850098,-25.48561668395996,31.398731231689453,9.685532569885254,0.0,0.0,-0.0,-0.0,0.30908122658729553,0.938107967376709,-0.15783651173114777,0.7477399706840515,3.280900001525879,-2.014319896697998,0.0,543829.0
1.0,23.378110885620117,4.172427654266357,-29.956640243530273,-45.610660552978516,0.0,0.0,-0.0,-0.0,0.30908122658729553,0.938107967376709,-0.15783651173114777,0.7477399706840515,3.280900001525879,-2.014319896697998,0.0,543830.0
1.0,47.281227111816406,31.721874237060547,-69.11740112304688,-79.04408264160156,0.0,0.0,-0.0,-0.0,0.30908122658729553,0.938107967376709,-0.15783651173114777,0.7477399706840515,3.280900001525879,-2.014319896697998,0.0,543831.0
1.0,42.96012496948242,41.889862060546875,-60.60784912109375,-71.40799713134766,0.0,0.0,-0.0,-0.0,0.30920329689979553,0.935849666595459,-0.15539510548114777,-1.0681999921798706,3.692919969558716,-2.746799945831299,0.0,543832.0
1.0,16.70466423034668,29.315399169921875,-13.312233924865723,-25.778154373168945,0.0,0.0,-0.0,-0.0,0.30920329689979553,0.935849666595459,-0.15539510548114777,-1.0681999921798706,3.692919969558716,-2.746799945831299,0.0,543833.0
1.0,-18.50896644592285,1.3061453104019165,41.8531379699707,35.243988037109375,0.0,0.0,-0.0,-0.0,0.30920329689979553,0.935849666595459,-0.15539510548114777,-1.0681999921798706,3.692919969558716,-2.746799945831299,0.0,543834.0
1.0,-49.28697967529297,-26.66291046142578,72.43724060058594,79.02788543701172,0.0,0.0,-0.0,-0.0,0.30920329689979553,0.935849666595459,-0.15539510548114777,-1.0681999921798706,3.692919969558716,-2.746799945831299,0.0,543835.0
1.0,-59.573509216308594,-39.38925552368164,59.629676818847656,80.59219360351562,0.0,0.0,-0.0,-0.0,0.30920329689979553,0.935849666595459,-0.15539510548114777,-1.0681999921798706,3.692919969558716,-2.746799945831299,0.0,543836.0
1.0,-38.546058654785156,-30.345050811767578,9.007978439331055,40.13508605957031,0.0,0.0,-0.0,-0.0,0.30920329689979553,0.935849666595459,-0.15539510548114777,-1.0681999921798706,3.692919969558716,-2.746799945831299,0.0,543837.0
1.0,7.621455192565918,-4.92130184173584,-51.022891998291016,-19.651899337768555,0.0,0.0,-0.0,-0.0,0.30920329689979553,0.935849666595459,-0.15539510548114777,-1.0681999921798706,3.692919969558716,-2.746799945831299,0.0,543838.0
1.0,53.86472702026367,22.783893585205078,-84.79654693603516,-67.74815368652344,0.0,0.0,-0.0,-0.0,0.30920329689979553,0.935849666595459,-0.15539510548114777,-1.0681999921798706,3.692919969558716,-2.746799945831299,0.0,543839.0
1.0,71.61327362060547,37.48008346557617,-71.49269104003906,-77.94599914550781,0.0,0.0,-0.0,-0.0,0.30920329689979553,0.935849666595459,-0.15539510548114777,-1.0681999921798706,3.692919969558716,-2.746799945831299,0.0,543840.0
1.0,50.30475997924805,31.306644439697266,-18.978370666503906,-44.28084945678711,0.0,0.0,-0.0,-0.0,0.30920329689979553,0.935849666595459,-0.15539510548114777,-1.0681999921798706,3.692919969558716,-2.746799945831299,0.0,543841.0
1.0,3.6085081100463867,7.894132614135742,43.55949783325195,12.767026901245117,0.0,0.0,-0.0,-0.0,0.3068229556083679,0.936826229095459,-0.14709435403347015,-1.7701599597930908,3.464020013809204,-3.2046000957489014,0.0,543842.0
1.0,-41.66506576538086,-20.357025146484375,84.6672134399414,60.03928756713867,0.0,0.0,-0.0,-0.0,0.3068229556083679,0.936826229095459,-0.14709435403347015,-1.7701599597930908,3.464020013809204,-3.2046000957489014,0.0,543843.0
1.0,-62.047080993652344,-38.416404724121094,85.75874328613281,71.5857925415039,0.0,0.0,-0.0,-0.0,0.3068229556083679,0.936826229095459,-0.14709435403347015,-1.7701599597930908,3.464020013809204,-3.2046000957489014,0.0,543844.0
1.0,-50.65120315551758,-35.95509338378906,49.128387451171875,41.82756423950195,0.0,0.0,-0.0,0.0,0.3068229556083679,0.936826229095459,-0.14709435403347015,-1.7701599597930908,3.464020013809204,-3.2046000957489014,0.0,543845.0
1.0,-18.1434268951416,-13.32687759399414,-6.347729206085205,-12.304975509643555,0.0,0.0,-0.0,0.0,0.3068229556083679,0.936826229095459,-0.14709435403347015,-1.7701599597930908,3.464020013809204,-3.2046000957489014,0.0,543846.0
1.0,18.042573928833008,17.824161529541016,-57.005496978759766,-61.14738845825195,0.0,0.0,-0.0,0.0,0.3068229556083679,0.936826229095459,-0.14709435403347015,-1.7701599597930908,3.464020013809204,-3.2046000957489014,0.0,543847.0
1.0,42.89613723754883,40.2630615234375,-82.37358856201172,-77.83897399902344,0.0,0.0,-0.0,0.0,0.3068229556083679,0.936826229095459,-0.14709435403347015,-1.7701599597930908,3.464020013809204,-3.2046000957489014,0.0,543848.0
1.0,47.79108428955078,41.09437561035156,-72.94729614257812,-52.9070930480957,0.0,0.0,-0.0,0.0,0.3068229556083679,0.936826229095459,-0.14709435403347015,-1.7701599597930908,3.464020013809204,-3.2046000957489014,0.0,543849.0
1.0,30.773069381713867,19.7336368560791,-34.43291091918945,1.8751813173294067,0.0,0.0,-0.0,0.0,0.3068229556083679,0.936826229095459,-0.14709435403347015,-1.7701599597930908,3.464020013809204,-3.2046000957489014,0.0,543850.0
1.0,-2.6142594814300537,-12.303516387939453,16.57288360595703,60.397621154785156,0.0,0.0,-0.0,0.0,0.3068229556083679,0.936826229095459,-0.14709435403347015,-1.7701599597930908,3.464020013809204,-3.2046000957489014,0.0,543851.0
1.0,-35.108924865722656,-38.137229919433594,57.59953308105469,91.7622299194336,0.0,0.0,-0.0,0.0,0.3063346743583679,0.938046932220459,-0.13940393924713135,-1.8312000036239624,3.1740798950195312,-1.7854199409484863,0.0,543852.0
1.0,-45.251548767089844,-44.11849594116211,68.00584411621094,76.3023681640625,0.0,0.0,-0.0,0.0,0.3063346743583679,0.938046932220459,-0.13940393924713135,-1.8312000036239624,3.1740798950195312,-1.7854199409484863,0.0,543853.0
1.0,-25.718172073364258,-26.70110321044922,41.741981506347656,20.06467056274414,0.0,0.0,-0.0,0.0,0.3063346743583679,0.938046932220459,-0.13940393924713135,-1.8312000036239624,3.1740798950195312,-1.7854199409484863,0.0,543854.0
1.0,10.507128715515137,5.550525188446045,-6.962294578552246,-47.92427444458008,0.0,0.0,-0.0,0.0,0.3063346743583679,0.938046932220459,-0.13940393924713135,-1.8312000036239624,3.1740798950195312,-1.7854199409484863,0.0,543855.0
1.0,39.16088104248047,35.50902557373047,-49.73362350463867,-91.36590576171875,0.0,0.0,-0.0,0.0,0.3063346743583679,0.938046932220459,-0.13940393924713135,-1.8312000036239624,3.1740798950195312,-1.7854199409484863,0.0,543856.0
1.0,40.49440383911133,46.408103942871094,-59.879940032958984,-86.65296173095703,0.0,0.0,-0.0,0.0,0.3063346743583679,0.938046932220459,-0.13940393924713135,-1.8312000036239624,3.1740798950195312,-1.7854199409484863,0.0,543857.0
1.0,13.661450386047363,32.09867858886719,-30.282955169677734,-37.706600189208984,0.0,0.0,-0.0,0.0,0.3063346743583679,0.938046932220459,-0.13940393924713135,-1.8312000036239624,3.1740798950195312,-1.7854199409484863,0.0,543858.0
1.0,-22.068878173828125,0.5223365426063538,20.80899429321289,27.097702026367188,0.0,0.0,-0.0,0.0,0.3063346743583679,0.938046932220459,-0.13940393924713135,-1.8312000036239624,3.1740798950195312,-1.7854199409484863,0.0,543859.0
1.0,-42.031959533691406,-31.315101623535156,60.27071762084961,73.59552764892578,0.0,0.0,-0.0,0.0,0.3063346743583679,0.938046932220459,-0.13940393924713135,-1.8312000036239624,3.1740798950195312,-1.7854199409484863,0.0,543860.0
1.0,-35.60884475708008,-46.471649169921875,62.983882904052734,80.44042205810547,0.0,0.0,-0.0,0.0,0.3063346743583679,0.938046932220459,-0.13940393924713135,-1.8312000036239624,3.1740798950195312,-1.7854199409484863,0.0,543861.0
1.0,-11.721977233886719,-36.96065902709961,30.047622680664062,47.28077697753906,0.0,0.0,-0.0,0.0,0.3027946352958679,0.937558650970459,-0.13848841190338135,-1.5565199851989746,2.27374005317688,-1.5565199851989746,0.0,543862.0
1.0,13.844451904296875,-7.993991374969482,-16.06452178955078,-8.357770919799805,0.0,0.0,-0.0,0.0,0.3027946352958679,0.937558650970459,-0.13848841190338135,-1.5565199851989746,2.27374005317688,-1.5565199851989746,0.0,543863.0
1.0,30.85468101501465,24.631120681762695,-49.888587951660156,-59.4586296081543,0.0,0.0,-0.0,0.0,0.3027946352958679,0.937558650970459,-0.13848841190338135,-1.5565199851989746,2.27374005317688,-1.5565199851989746,0.0,543864.0
1.0,34.741397857666016,43.069984436035156,-56.59243392944336,-79.51841735839844,0.0,0.0,-0.0,0.0,0.3027946352958679,0.937558650970459,-0.13848841190338135,-1.5565199851989746,2.27374005317688,-1.5565199851989746,0.0,543865.0
1.0,23.905710220336914,37.79673767089844,-35.183372497558594,-54.89064407348633,0.0,0.0,-0.0,0.0,0.3027946352958679,0.937558650970459,-0.13848841190338135,-1.5565199851989746,2.27374005317688,-1.5565199851989746,0.0,543866.0
1.0,1.5459468364715576,12.613175392150879,4.628894329071045,4.502705097198486,0.0,0.0,-0.0,0.0,0.3027946352958679,0.937558650970459,-0.13848841190338135,-1.5565199851989746,2.27374005317688,-1.5565199851989746,0.0,543867.0
1.0,-23.309341430664062,-18.378530502319336,43.52669143676758,64.92861938476562,0.0,0.0,-0.0,0.0,0.3027946352958679,0.937558650970459,-0.13848841190338135,-1.5565199851989746,2.27374005317688,-1.5565199851989746,0.0,543868.0
1.0,-37.745269775390625,-38.48002624511719,57.53031539916992,87.96546173095703,0.0,0.0,-0.0,0.0,0.3027946352958679,0.937558650970459,-0.13848841190338135,-1.5565199851989746,2.27374005317688,-1.5565199851989746,0.0,543869.0
1.0,-31.250835418701172,-37.11216354370117,34.21854019165039,58.6539192199707,0.0,0.0,-0.0,0.0,0.3027946352958679,0.937558650970459,-0.13848841190338135,-1.5565199851989746,2.27374005317688,-1.5565199851989746,0.0,543870.0
1.0,-4.938507556915283,-15.267136573791504,-16.064382553100586,-5.334128379821777,0.0,0.0,-0.0,0.0,0.3027946352958679,0.937558650970459,-0.13848841190338135,-1.5565199851989746,2.27374005317688,-1.5565199851989746,0.0,543871.0
1.0,25.94694709777832,15.18481159210205,-64.43207550048828,-68.05131530761719,0.0,0.0,-0.0,0.0,0.2990104556083679,0.930844783782959,-0.13952600955963135,2.7010200023651123,0.946120023727417,0.183119997382164,0.0,543872.0
1.0,40.735755920410156,37.499366760253906,-77.74075317382812,-94.66241455078125,0.0,0.0,-0.0,0.0,0.2990104556083679,0.930844783782959,-0.13952600955963135,2.7010200023651123,0.946120023727417,0.183119997382164,0.0,543873.0
1.0,28.95114517211914,39.34006881713867,-41.78950881958008,-69.44599151611328,0.0,0.0,-0.0,0.0,0.2990104556083679,0.930844783782959,-0.13952600955963135,2.7010200023651123,0.946120023727417,0.183119997382164,0.0,543874.0
1.0,-1.3128212690353394,19.92669677734375,23.563087463378906,-7.073729991912842,0.0,0.0,-0.0,0.0,0.2990104556083679,0.930844783782959,-0.13952600955963135,2.7010200023651123,0.946120023727417,0.183119997382164,0.0,543875.0
1.0,-31.356740951538086,-10.305167198181152,79.0261459350586,57.22078323364258,0.0,0.0,-0.0,0.0,0.2990104556083679,0.930844783782959,-0.13952600955963135,2.7010200023651123,0.946120023727417,0.183119997382164,0.0,543876.0
1.0,-45.6165657043457,-35.5647087097168,93.98165130615234,90.98658752441406,0.0,0.0,-0.0,0.0,0.2990104556083679,0.930844783782959,-0.13952600955963135,2.7010200023651123,0.946120023727417,0.183119997382164,0.0,543877.0
1.0,-37.56519317626953,-42.39686584472656,60.75748825073242,79.20915985107422,0.0,0.0,-0.0,0.0,0.2990104556083679,0.930844783782959,-0.13952600955963135,2.7010200023651123,0.946120023727417,0.183119997382164,0.0,543878.0
1.0,-8.374640464782715,-26.73891258239746,-5.319553852081299,27.856107711791992,0.0,0.0,-0.0,0.0,0.2990104556083679,0.930844783782959,-0.13952600955963135,2.7010200023651123,0.946120023727417,0.183119997382164,0.0,543879.0
1.0,31.003389358520508,3.439211368560791,-72.02513122558594,-37.361751556396484,0.0,0.0,-0.0,0.0,0.2990104556083679,0.930844783782959,-0.13952600955963135,2.7010200023651123,0.946120023727417,0.183119997382164,0.0,543880.0
1.0,59.91062545776367,31.84612274169922,-104.29875183105469,-81.72907257080078,0.0,0.0,-0.0,0.0,0.2990104556083679,0.930844783782959,-0.13952600955963135,2.7010200023651123,0.946120023727417,0.183119997382164,0.0,543881.0
1.0,60.968257904052734,42.873783111572266,-84.11531829833984,-82.25484466552734,0.0,0.0,-0.0,0.0,0.2971183657646179,0.926938533782959,-0.13842737674713135,9.796919822692871,-1.327620029449463,-1.052940011024475,0.0,543882.0
1.0,31.871004104614258,30.758989334106445,-21.207454681396484,-40.485015869140625,0.0,0.0,-0.0,0.0,0.2971183657646179,0.926938533782959,-0.13842737674713135,9.796919822692871,-1.327620029449463,-1.052940011024475,0.0,543883.0
1.0,-14.355464935302734,2.339413642883301,53.2446403503418,21.7261962890625,0.0,0.0,-0.0,0.0,0.2971183657646179,0.926938533782959,-0.13842737674713135,9.796919822692871,-1.327620029449463,-1.052940011024475,0.0,543884.0
1.0,-54.958892822265625,-27.02090072631836,102.50591278076172,71.6153564453125,0.0,0.0,-0.0,0.0,0.2971183657646179,0.926938533782959,-0.13842737674713135,9.796919822692871,-1.327620029449463,-1.052940011024475,0.0,543885.0
1.0,-68.78484344482422,-41.43964767456055,102.1337890625,79.90985870361328,0.0,0.0,-0.0,0.0,0.2971183657646179,0.926938533782959,-0.13842737674713135,9.796919822692871,-1.327620029449463,-1.052940011024475,0.0,543886.0
1.0,-48.44860076904297,-33.21303939819336,52.41520690917969,41.44856643676758,0.0,0.0,-0.0,0.0,0.2971183657646179,0.926938533782959,-0.13842737674713135,9.796919822692871,-1.327620029449463,-1.052940011024475,0.0,543887.0
1.0,-4.942227363586426,-6.959676265716553,-21.512847900390625,-18.75381088256836,0.0,0.0,-0.0,0.0,0.2971183657646179,0.926938533782959,-0.13842737674713135,9.796919822692871,-1.327620029449463,-1.052940011024475,0.0,543888.0
1.0,36.388187408447266,23.003395080566406,-81.4582290649414,-63.25791931152344,0.0,0.0,-0.0,0.0,0.2971183657646179,0.926938533782959,-0.13842737674713135,9.796919822692871,-1.327620029449463,-1.052940011024475,0.0,543889.0
1.0,51.27866744995117,40.25188446044922,-97.07273864746094,-67.07115936279297,0.0,0.0,-0.0,0.0,0.2971183657646179,0.926938533782959,-0.13842737674713135,9.796919822692871,-1.327620029449463,-1.052940011024475,0.0,543890.0
1.0,35.831478118896484,35.4376335144043,-65.47745513916016,-31.61000633239746,0.0,0.0,-0.0,0.0,0.2971183657646179,0.926938533782959,-0.13842737674713135,9.796919822692871,-1.327620029449463,-1.052940011024475,0.0,543891.0
1.0,5.507598400115967,11.298649787902832,-9.643082618713379,19.77679443359375,0.0,0.0,-0.0,0.0,0.2987663149833679,0.931577205657959,-0.13830530643463135,8.866060256958008,-2.1974399089813232,1.6938600540161133,0.0,543892.0
1.0,-22.952556610107422,-19.180021286010742,42.920570373535156,57.72796630859375,0.0,0.0,-0.0,0.0,0.2987663149833679,0.931577205657959,-0.13830530643463135,8.866060256958008,-2.1974399089813232,1.6938600540161133,0.0,543893.0
1.0,-37.88478088378906,-39.2652473449707,73.23490905761719,61.79737091064453,0.0,0.0,-0.0,0.0,0.2987663149833679,0.931577205657959,-0.13830530643463135,8.866060256958008,-2.1974399089813232,1.6938600540161133,0.0,543894.0
1.0,-31.474483489990234,-37.546451568603516,68.83589172363281,30.44225311279297,0.0,0.0,-0.0,0.0,0.2987663149833679,0.931577205657959,-0.13830530643463135,8.866060256958008,-2.1974399089813232,1.6938600540161133,0.0,543895.0
1.0,-4.8096160888671875,-14.909192085266113,26.122312545776367,-18.72917366027832,0.0,0.0,-0.0,0.0,0.2987663149833679,0.931577205657959,-0.13830530643463135,8.866060256958008,-2.1974399089813232,1.6938600540161133,0.0,543896.0
1.0,29.9483585357666,15.937713623046875,-37.220787048339844,-60.76939010620117,0.0,0.0,-0.0,0.0,0.2987663149833679,0.931577205657959,-0.13830530643463135,8.866060256958008,-2.1974399089813232,1.6938600540161133,0.0,543897.0
1.0,53.627933502197266,37.6839714050293,-82.29778289794922,-74.72499084472656,0.0,0.0,0.0,0.0,0.2987663149833679,0.931577205657959,-0.13830530643463135,8.866060256958008,-2.1974399089813232,1.6938600540161133,0.0,543898.0
1.0,49.04374313354492,38.31321716308594,-76.95189666748047,-49.94849395751953,0.0,0.0,0.0,0.0,0.2987663149833679,0.931577205657959,-0.13830530643463135,8.866060256958008,-2.1974399089813232,1.6938600540161133,0.0,543899.0
1.0,13.427538871765137,17.86147689819336,-21.45029640197754,4.72828483581543,0.0,0.0,0.0,0.0,0.2987663149833679,0.931577205657959,-0.13830530643463135,8.866060256958008,-2.1974399089813232,1.6938600540161133,0.0,543900.0
1.0,-36.042903900146484,-12.411415100097656,54.43336486816406,60.56827926635742,0.0,0.0,0.0,0.0,0.2987663149833679,0.931577205657959,-0.13830530643463135,8.866060256958008,-2.1974399089813232,1.6938600540161133,0.0,543901.0
1.0,-70.81537628173828,-36.30580520629883,108.63533020019531,87.48543548583984,0.0,0.0,0.0,0.0,0.3034660220146179,0.930844783782959,-0.14294396340847015,8.957619667053223,-1.9685399532318115,-1.052940011024475,0.0,543902.0
1.0,-68.73676300048828,-40.84474182128906,107.1994857788086,71.95027923583984,0.0,0.0,0.0,0.0,0.3034660220146179,0.930844783782959,-0.14294396340847015,8.957619667053223,-1.9685399532318115,-1.052940011024475,0.0,543903.0
