CH_1,CH_2,CH_3,CH_4,CH_5,CH_6,CH_7,CH_8,CH_9,CH_10,CH_11,CH_12,CH_13,CH_14,CH_15,CH_16,CH_17
1.0,13.281050682067871,-12.26989459991455,-5.91666316986084,-9.81095027923584,0.0,0.0,0.0,0.0,0.43041881918907166,0.9155250191688538,0.12957730889320374,3.2961599826812744,3.662400007247925,-7.721560001373291,0.0,528349.0
1.0,-10.996994018554688,-38.98720169067383,-0.6406014561653137,6.724520683288574,0.0,0.0,0.0,0.0,0.43041881918907166,0.9155250191688538,0.12957730889320374,3.2961599826812744,3.662400007247925,-7.721560001373291,0.0,528350.0
1.0,-23.709074020385742,-44.77268600463867,-1.2575873136520386,13.792569160461426,0.0,0.0,0.0,0.0,0.43041881918907166,0.9155250191688538,0.12957730889320374,3.2961599826812744,3.662400007247925,-7.721560001373291,0.0,528351.0
1.0,-23.770694732666016,-26.45148277282715,0.9950954914093018,5.608466148376465,0.0,0.0,0.0,0.0,0.42761120200157166,0.922544002532959,0.12402311712503433,-14.130760192871094,2.655240058898926,-9.751139640808105,0.0,528352.0
1.0,-11.847247123718262,6.081140041351318,9.740001678466797,-11.953986167907715,0.0,0.0,0.0,0.0,0.42761120200157166,0.922544002532959,0.12402311712503433,-14.130760192871094,2.655240058898926,-9.751139640808105,0.0,528353.0
1.0,6.773278713226318,35.12858581542969,16.05573844909668,-22.76438331604004,0.0,0.0,0.0,0.0,0.42761120200157166,0.922544002532959,0.12402311712503433,-14.130760192871094,2.655240058898926,-9.751139640808105,0.0,528354.0
1.0,20.888256072998047,44.99806594848633,10.048150062561035,-15.515947341918945,0.0,0.0,0.0,0.0,0.42761120200157166,0.922544002532959,0.12402311712503433,-14.130760192871094,2.655240058898926,-9.751139640808105,0.0,528355.0
1.0,20.446605682373047,30.718524932861328,-6.131643772125244,4.8026580810546875,0.0,0.0,0.0,0.0,0.42761120200157166,0.922544002532959,0.12402311712503433,-14.130760192871094,2.655240058898926,-9.751139640808105,0.0,528356.0
1.0,5.186953067779541,0.08214239776134491,-19.965059280395508,24.666276931762695,0.0,0.0,0.0,0.0,0.42761120200157166,0.922544002532959,0.12402311712503433,-14.130760192871094,2.655240058898926,-9.751139640808105,0.0,528357.0
1.0,-15.946938514709473,-30.673551559448242,-22.453411102294922,34.15285873413086,0.0,0.0,0.0,0.0,0.42761120200157166,0.922544002532959,0.12402311712503433,-14.130760192871094,2.655240058898926,-9.751139640808105,0.0,528358.0
1.0,-28.045745849609375,-44.94948959350586,-19.289306640625,28.768712997436523,0.0,0.0,0.0,0.0,0.42761120200157166,0.922544002532959,0.12402311712503433,-14.130760192871094,2.655240058898926,-9.751139640808105,0.0,528359.0
1.0,-15.931591987609863,-34.93573760986328,-21.44161033630371,7.9280595779418945,0.0,0.0,0.0,0.0,0.42761120200157166,0.922544002532959,0.12402311712503433,-14.130760192871094,2.655240058898926,-9.751139640808105,0.0,528360.0
1.0,21.051851272583008,-6.221438884735107,-28.380353927612305,-24.666610717773438,0.0,0.0,0.0,0.0,0.42761120200157166,0.922544002532959,0.12402311712503433,-14.130760192871094,2.655240058898926,-9.751139640808105,0.0,528361.0
1.0,58.50131607055664,25.349037170410156,-26.30635643005371,-54.73075866699219,0.0,0.0,0.0,0.0,0.42169082164764404,0.8973365426063538,0.13873255252838135,-8.316699981689453,1.2970999479293823,-13.24567985534668,0.0,528362.0
1.0,59.01531219482422,42.5212516784668,-0.21736925840377808,-58.34352111816406,0.0,0.0,0.0,0.0,0.42169082164764404,0.8973365426063538,0.13873255252838135,-8.316699981689453,1.2970999479293823,-13.24567985534668,0.0,528363.0
1.0,9.641451835632324,36.563175201416016,46.20069122314453,-24.908950805664062,0.0,0.0,0.0,0.0,0.42169082164764404,0.8973365426063538,0.13873255252838135,-8.316699981689453,1.2970999479293823,-13.24567985534668,0.0,528364.0
1.0,-58.33451843261719,11.620528221130371,86.16788482666016,28.090957641601562,0.0,0.0,0.0,0.0,0.42169082164764404,0.8973365426063538,0.13873255252838135,-8.316699981689453,1.2970999479293823,-13.24567985534668,0.0,528365.0
1.0,-100.01091003417969,-18.798091888427734,93.69087982177734,69.95438385009766,0.0,0.0,0.0,0.0,0.42169082164764404,0.8973365426063538,0.13873255252838135,-8.316699981689453,1.2970999479293823,-13.24567985534668,0.0,528366.0
1.0,-91.95453643798828,-38.840919494628906,62.08485794067383,78.22982025146484,0.0,0.0,0.0,0.0,0.42169082164764404,0.8973365426063538,0.13873255252838135,-8.316699981689453,1.2970999479293823,-13.24567985534668,0.0,528367.0
1.0,-37.13179016113281,-37.887962341308594,1.9245367050170898,49.07710647583008,0.0,0.0,0.0,0.0,0.42169082164764404,0.8973365426063538,0.13873255252838135,-8.316699981689453,1.2970999479293823,-13.24567985534668,0.0,528368.0
1.0,43.36110305786133,-16.32634925842285,-67.5353775024414,-5.298771858215332,0.0,0.0,0.0,0.0,0.42169082164764404,0.8973365426063538,0.13873255252838135,-8.316699981689453,1.2970999479293823,-13.24567985534668,0.0,528369.0
1.0,112.4368896484375,14.163614273071289,-122.29650115966797,-63.2415657043457,0.0,0.0,0.0,0.0,0.42169082164764404,0.8973365426063538,0.13873255252838135,-8.316699981689453,1.2970999479293823,-13.24567985534668,0.0,528370.0
1.0,126.03939056396484,36.728519439697266,-133.08499145507812,-95.69783782958984,0.0,0.0,0.0,0.0,0.42169082164764404,0.8973365426063538,0.13873255252838135,-8.316699981689453,1.2970999479293823,-13.24567985534668,0.0,528371.0
1.0,71.68084716796875,39.16055679321289,-85.32577514648438,-79.84171295166016,0.0,0.0,0.0,0.0,0.42266738414764404,0.8682839274406433,0.15435750782489777,19.944820404052734,-0.4730600118637085,-10.453100204467773,0.0,528372.0
1.0,-13.138690948486328,20.66887092590332,-1.7007256746292114,-21.515625,0.0,0.0,0.0,0.0,0.42266738414764404,0.8682839274406433,0.15435750782489777,19.944820404052734,-0.4730600118637085,-10.453100204467773,0.0,528373.0
1.0,-80.53848266601562,-8.66179370880127,78.8927230834961,45.16533279418945,0.0,0.0,0.0,0.0,0.42266738414764404,0.8682839274406433,0.15435750782489777,19.944820404052734,-0.4730600118637085,-10.453100204467773,0.0,528374.0
1.0,-107.93226623535156,-33.12492752075195,131.10409545898438,82.94773864746094,0.0,0.0,0.0,-0.0,0.42266738414764404,0.8682839274406433,0.15435750782489777,19.944820404052734,-0.4730600118637085,-10.453100204467773,0.0,528375.0
1.0,-92.75586700439453,-39.36503601074219,138.6241912841797,76.3546371459961,0.0,0.0,0.0,-0.0,0.42266738414764404,0.8682839274406433,0.15435750782489777,19.944820404052734,-0.4730600118637085,-10.453100204467773,0.0,528376.0
1.0,-41.371578216552734,-24.0926456451416,90.93677520751953,36.29612731933594,0.0,0.0,0.0,-0.0,0.42266738414764404,0.8682839274406433,0.15435750782489777,19.944820404052734,-0.4730600118637085,-10.453100204467773,0.0,528377.0
1.0,27.29473876953125,4.153279781341553,1.1426992416381836,-13.225021362304688,0.0,0.0,0.0,-0.0,0.42266738414764404,0.8682839274406433,0.15435750782489777,19.944820404052734,-0.4730600118637085,-10.453100204467773,0.0,528378.0
1.0,83.81465911865234,29.739683151245117,-91.79739379882812,-48.78249740600586,0.0,0.0,0.0,-0.0,0.42266738414764404,0.8682839274406433,0.15435750782489777,19.944820404052734,-0.4730600118637085,-10.453100204467773,0.0,528379.0
1.0,103.56727600097656,38.345611572265625,-144.44439697265625,-56.38623809814453,0.0,0.0,0.0,-0.0,0.42266738414764404,0.8682839274406433,0.15435750782489777,19.944820404052734,-0.4730600118637085,-10.453100204467773,0.0,528380.0
1.0,76.38743591308594,25.265169143676758,-128.9640350341797,-36.51816940307617,0.0,0.0,0.0,-0.0,0.42266738414764404,0.8682839274406433,0.15435750782489777,19.944820404052734,-0.4730600118637085,-10.453100204467773,0.0,528381.0
1.0,10.31854248046875,-2.133206605911255,-48.82941818237305,-1.2051135301589966,0.0,0.0,0.0,-0.0,0.42346084117889404,0.8761574029922485,0.15490682423114777,34.96065902709961,-2.655240058898926,-4.7763800621032715,0.0,528382.0
1.0,-63.249732971191406,-28.81348419189453,54.5554313659668,33.12834548950195,0.0,0.0,0.0,-0.0,0.42346084117889404,0.8761574029922485,0.15490682423114777,34.96065902709961,-2.655240058898926,-4.7763800621032715,0.0,528383.0
1.0,-100.50092315673828,-39.86368179321289,123.33990478515625,50.26219177246094,0.0,0.0,0.0,-0.0,0.42346084117889404,0.8761574029922485,0.15490682423114777,34.96065902709961,-2.655240058898926,-4.7763800621032715,0.0,528384.0
1.0,-77.36237335205078,-28.68651580810547,119.95635223388672,39.01836013793945,0.0,0.0,0.0,-0.0,0.42346084117889404,0.8761574029922485,0.15490682423114777,34.96065902709961,-2.655240058898926,-4.7763800621032715,0.0,528385.0
1.0,-8.933466911315918,-1.084333896636963,49.23207473754883,1.1945087909698486,0.0,0.0,0.0,-0.0,0.42346084117889404,0.8761574029922485,0.15490682423114777,34.96065902709961,-2.655240058898926,-4.7763800621032715,0.0,528386.0
1.0,59.911224365234375,27.732696533203125,-43.39506149291992,-41.62419891357422,0.0,0.0,0.0,-0.0,0.42346084117889404,0.8761574029922485,0.15490682423114777,34.96065902709961,-2.655240058898926,-4.7763800621032715,0.0,528387.0
1.0,83.66047668457031,41.54503631591797,-99.90389251708984,-59.049434661865234,0.0,0.0,0.0,-0.0,0.42346084117889404,0.8761574029922485,0.15490682423114777,34.96065902709961,-2.655240058898926,-4.7763800621032715,0.0,528388.0
1.0,50.93387985229492,32.711910247802734,-90.17927551269531,-39.23374557495117,0.0,0.0,0.0,-0.0,0.42346084117889404,0.8761574029922485,0.15490682423114777,34.96065902709961,-2.655240058898926,-4.7763800621032715,0.0,528389.0
1.0,-10.528411865234375,6.378168106079102,-29.2471981048584,3.6896252632141113,0.0,0.0,0.0,-0.0,0.42346084117889404,0.8761574029922485,0.15490682423114777,34.96065902709961,-2.655240058898926,-4.7763800621032715,0.0,528390.0
1.0,-59.12834930419922,-23.333782196044922,39.147518157958984,44.464576721191406,0.0,0.0,0.0,-0.0,0.42346084117889404,0.8761574029922485,0.15490682423114777,34.96065902709961,-2.655240058898926,-4.7763800621032715,0.0,528391.0
1.0,-64.5838851928711,-40.95487976074219,69.79271697998047,59.287872314453125,0.0,0.0,0.0,-0.0,0.42449843883514404,0.9064918160438538,0.13092008233070374,22.188039779663086,-0.3204599916934967,-1.815940022468567,0.0,528392.0
1.0,-27.290626525878906,-37.24709701538086,43.76457977294922,38.368385314941406,0.0,0.0,0.0,-0.0,0.42449843883514404,0.9064918160438538,0.13092008233070374,22.188039779663086,-0.3204599916934967,-1.815940022468567,0.0,528393.0
1.0,22.39336585998535,-13.811240196228027,-11.388089179992676,-6.620281219482422,0.0,0.0,0.0,-0.0,0.42449843883514404,0.9064918160438538,0.13092008233070374,22.188039779663086,-0.3204599916934967,-1.815940022468567,0.0,528394.0
1.0,50.66056442260742,17.49674415588379,-41.72048568725586,-49.68528747558594,0.0,0.0,0.0,-0.0,0.42449843883514404,0.9064918160438538,0.13092008233070374,22.188039779663086,-0.3204599916934967,-1.815940022468567,0.0,528395.0
1.0,43.94366455078125,40.032493591308594,-23.068744659423828,-64.46659851074219,0.0,0.0,0.0,-0.0,0.42449843883514404,0.9064918160438538,0.13092008233070374,22.188039779663086,-0.3204599916934967,-1.815940022468567,0.0,528396.0
1.0,12.99690055847168,41.418094635009766,17.6695556640625,-41.566261291503906,0.0,0.0,0.0,-0.0,0.42449843883514404,0.9064918160438538,0.13092008233070374,22.188039779663086,-0.3204599916934967,-1.815940022468567,0.0,528397.0
1.0,-20.909971237182617,21.011938095092773,44.327972412109375,4.494870185852051,0.0,0.0,0.0,-0.0,0.42449843883514404,0.9064918160438538,0.13092008233070374,22.188039779663086,-0.3204599916934967,-1.815940022468567,0.0,528398.0
1.0,-42.725074768066406,-10.148505210876465,47.006900787353516,48.24260711669922,0.0,0.0,0.0,-0.0,0.42449843883514404,0.9064918160438538,0.13092008233070374,22.188039779663086,-0.3204599916934967,-1.815940022468567,0.0,528399.0
1.0,-45.24467468261719,-35.64777755737305,29.97303009033203,68.26744842529297,0.0,0.0,0.0,-0.0,0.42449843883514404,0.9064918160438538,0.13092008233070374,22.188039779663086,-0.3204599916934967,-1.815940022468567,0.0,528400.0
1.0,-26.386198043823242,-42.14442443847656,-2.14750599861145,56.53888702392578,0.0,0.0,0.0,-0.0,0.42449843883514404,0.9064918160438538,0.13092008233070374,22.188039779663086,-0.3204599916934967,-1.815940022468567,0.0,528401.0
1.0,7.883465766906738,-26.37556266784668,-39.4160041809082,20.093612670898438,0.0,0.0,0.0,-0.0,0.42883190512657166,0.941831111907959,0.10845919698476791,-6.226079940795898,1.5717799663543701,0.1526000052690506,0.0,528402.0
1.0,44.71216583251953,3.1402347087860107,-69.36692810058594,-27.16358757019043,0.0,0.0,0.0,-0.0,0.42883190512657166,0.941831111907959,0.10845919698476791,-6.226079940795898,1.5717799663543701,0.1526000052690506,0.0,528403.0
1.0,68.0588150024414,30.401134490966797,-82.11871337890625,-67.57686614990234,0.0,0.0,0.0,-0.0,0.42883190512657166,0.941831111907959,0.10845919698476791,-6.226079940795898,1.5717799663543701,0.1526000052690506,0.0,528404.0
1.0,62.900089263916016,40.5988883972168,-68.00111389160156,-79.9072036743164,0.0,0.0,0.0,-0.0,0.42883190512657166,0.941831111907959,0.10845919698476791,-6.226079940795898,1.5717799663543701,0.1526000052690506,0.0,528405.0
1.0,24.964954376220703,28.73560333251953,-22.443740844726562,-51.69195556640625,0.0,0.0,0.0,-0.0,0.42883190512657166,0.941831111907959,0.10845919698476791,-6.226079940795898,1.5717799663543701,0.1526000052690506,0.0,528406.0
1.0,-31.241500854492188,1.810233235359192,43.36758804321289,6.6207098960876465,0.0,0.0,0.0,-0.0,0.42883190512657166,0.941831111907959,0.10845919698476791,-6.226079940795898,1.5717799663543701,0.1526000052690506,0.0,528407.0
1.0,-77.589599609375,-25.666248321533203,100.65803527832031,63.83687210083008,0.0,0.0,0.0,-0.0,0.42883190512657166,0.941831111907959,0.10845919698476791,-6.226079940795898,1.5717799663543701,0.1526000052690506,0.0,528408.0
1.0,-87.97608947753906,-38.89153289794922,115.8345718383789,86.75424194335938,0.0,0.0,0.0,-0.0,0.42883190512657166,0.941831111907959,0.10845919698476791,-6.226079940795898,1.5717799663543701,0.1526000052690506,0.0,528409.0
1.0,-53.00634002685547,-30.42507553100586,72.5555191040039,60.87767791748047,0.0,0.0,0.0,-0.0,0.42883190512657166,0.941831111907959,0.10845919698476791,-6.226079940795898,1.5717799663543701,0.1526000052690506,0.0,528410.0
1.0,11.237059593200684,-4.695499420166016,-10.031641006469727,0.847320556640625,0.0,0.0,0.0,-0.0,0.42883190512657166,0.941831111907959,0.10845919698476791,-6.226079940795898,1.5717799663543701,0.1526000052690506,0.0,528411.0
1.0,67.97904968261719,24.011741638183594,-82.42039489746094,-56.09431457519531,0.0,0.0,0.0,-0.0,0.42187392711639404,0.937985897064209,0.11663788557052612,-23.74456024169922,1.3733999729156494,-4.623779773712158,0.0,528412.0
1.0,83.43938446044922,39.408870697021484,-100.52963256835938,-74.44324493408203,0.0,0.0,0.0,-0.0,0.42187392711639404,0.937985897064209,0.11663788557052612,-23.74456024169922,1.3733999729156494,-4.623779773712158,0.0,528413.0
1.0,49.86903381347656,32.72003936767578,-58.436180114746094,-44.17031478881836,0.0,0.0,0.0,-0.0,0.42187392711639404,0.937985897064209,0.11663788557052612,-23.74456024169922,1.3733999729156494,-4.623779773712158,0.0,528414.0
1.0,-10.059005737304688,7.561038017272949,13.255541801452637,12.906328201293945,0.0,0.0,0.0,-0.0,0.42187392711639404,0.937985897064209,0.11663788557052612,-23.74456024169922,1.3733999729156494,-4.623779773712158,0.0,528415.0
1.0,-54.71106719970703,-22.409395217895508,70.873779296875,54.96231460571289,0.0,0.0,0.0,-0.0,0.42187392711639404,0.937985897064209,0.11663788557052612,-23.74456024169922,1.3733999729156494,-4.623779773712158,0.0,528416.0
1.0,-55.8131103515625,-40.65152359008789,85.1019287109375,52.468074798583984,0.0,0.0,0.0,-0.0,0.42187392711639404,0.937985897064209,0.11663788557052612,-23.74456024169922,1.3733999729156494,-4.623779773712158,0.0,528417.0
1.0,-28.27167320251465,-36.94245529174805,55.67624282836914,15.384512901306152,0.0,0.0,0.0,-0.0,0.42187392711639404,0.937985897064209,0.11663788557052612,-23.74456024169922,1.3733999729156494,-4.623779773712158,0.0,528418.0
1.0,-3.7373123168945312,-13.44839096069336,0.3231220841407776,-24.668699264526367,0.0,0.0,0.0,-0.0,0.42187392711639404,0.937985897064209,0.11663788557052612,-23.74456024169922,1.3733999729156494,-4.623779773712158,0.0,528419.0
1.0,12.175159454345703,16.942777633666992,-57.96919250488281,-47.2939567565918,0.0,0.0,0.0,-0.0,0.42187392711639404,0.937985897064209,0.11663788557052612,-23.74456024169922,1.3733999729156494,-4.623779773712158,0.0,528420.0
1.0,26.708768844604492,37.86235046386719,-92.83364868164062,-45.20198440551758,0.0,0.0,0.0,-0.0,0.42187392711639404,0.937985897064209,0.11663788557052612,-23.74456024169922,1.3733999729156494,-4.623779773712158,0.0,528421.0
1.0,33.83896255493164,38.19817352294922,-86.34107208251953,-17.703105926513672,0.0,0.0,0.0,-0.0,0.41882216930389404,0.8980079293251038,0.13836634159088135,-1.846459984779358,-0.4578000009059906,-2.2279601097106934,0.0,528422.0
1.0,24.815649032592773,18.284393310546875,-38.60514450073242,25.617324829101562,0.0,0.0,0.0,-0.0,0.41882216930389404,0.8980079293251038,0.13836634159088135,-1.846459984779358,-0.4578000009059906,-2.2279601097106934,0.0,528423.0
1.0,4.553055286407471,-10.631211280822754,32.80731201171875,63.35452651977539,0.0,0.0,0.0,-0.0,0.41882216930389404,0.8980079293251038,0.13836634159088135,-1.846459984779358,-0.4578000009059906,-2.2279601097106934,0.0,528424.0
1.0,-13.69625473022461,-32.97012710571289,87.38145446777344,68.6439437866211,0.0,0.0,0.0,-0.0,0.41882216930389404,0.8980079293251038,0.13836634159088135,-1.846459984779358,-0.4578000009059906,-2.2279601097106934,0.0,528425.0
1.0,-20.432079315185547,-37.13322448730469,83.75389099121094,29.602672576904297,0.0,0.0,0.0,-0.0,0.41882216930389404,0.8980079293251038,0.13836634159088135,-1.846459984779358,-0.4578000009059906,-2.2279601097106934,0.0,528426.0
1.0,-13.367362976074219,-21.20337677001953,27.8128719329834,-34.787742614746094,0.0,0.0,0.0,-0.0,0.41882216930389404,0.8980079293251038,0.13836634159088135,-1.846459984779358,-0.4578000009059906,-2.2279601097106934,0.0,528427.0
1.0,1.2800893783569336,6.371509552001953,-30.83452033996582,-86.68700408935547,0.0,0.0,-0.0,-0.0,0.41882216930389404,0.8980079293251038,0.13836634159088135,-1.846459984779358,-0.4578000009059906,-2.2279601097106934,0.0,528428.0
1.0,12.48005485534668,30.766281127929688,-52.524139404296875,-94.40370178222656,0.0,0.0,-0.0,-0.0,0.41882216930389404,0.8980079293251038,0.13836634159088135,-1.846459984779358,-0.4578000009059906,-2.2279601097106934,0.0,528429.0
1.0,12.73789119720459,38.43000793457031,-35.78858947753906,-51.32957458496094,0.0,0.0,-0.0,-0.0,0.41882216930389404,0.8980079293251038,0.13836634159088135,-1.846459984779358,-0.4578000009059906,-2.2279601097106934,0.0,528430.0
1.0,-0.08541595935821533,24.97868537902832,-2.261585235595703,20.346527099609375,0.0,0.0,-0.0,-0.0,0.41882216930389404,0.8980079293251038,0.13836634159088135,-1.846459984779358,-0.4578000009059906,-2.2279601097106934,0.0,528431.0
1.0,-19.879812240600586,-2.346057415008545,25.5993595123291,82.7375259399414,0.0,0.0,-0.0,-0.0,0.42138564586639404,0.8715798258781433,0.14562951028347015,28.093660354614258,-1.1292400360107422,2.899399995803833,0.0,528432.0
1.0,-31.426841735839844,-28.822317123413086,34.89619064331055,103.38975524902344,0.0,0.0,-0.0,-0.0,0.42138564586639404,0.8715798258781433,0.14562951028347015,28.093660354614258,-1.1292400360107422,2.899399995803833,0.0,528433.0
1.0,-23.9780330657959,-39.96237564086914,24.201993942260742,74.47162628173828,0.0,0.0,-0.0,-0.0,0.42138564586639404,0.8715798258781433,0.14562951028347015,28.093660354614258,-1.1292400360107422,2.899399995803833,0.0,528434.0
1.0,-1.1240419149398804,-29.301891326904297,0.4474002420902252,14.619098663330078,0.0,0.0,-0.0,-0.0,0.42138564586639404,0.8715798258781433,0.14562951028347015,28.093660354614258,-1.1292400360107422,2.899399995803833,0.0,528435.0
1.0,26.758464813232422,-2.093461751937866,-25.121091842651367,-48.04019546508789,0.0,0.0,-0.0,-0.0,0.42138564586639404,0.8715798258781433,0.14562951028347015,28.093660354614258,-1.1292400360107422,2.899399995803833,0.0,528436.0
1.0,48.1683235168457,27.059261322021484,-40.24711990356445,-88.22696685791016,0.0,0.0,-0.0,-0.0,0.42138564586639404,0.8715798258781433,0.14562951028347015,28.093660354614258,-1.1292400360107422,2.899399995803833,0.0,528437.0
1.0,49.068885803222656,41.7333869934082,-36.064083099365234,-87.09877014160156,0.0,0.0,-0.0,-0.0,0.42138564586639404,0.8715798258781433,0.14562951028347015,28.093660354614258,-1.1292400360107422,2.899399995803833,0.0,528438.0
1.0,22.943288803100586,33.44425582885742,-12.5706148147583,-42.991859436035156,0.0,0.0,-0.0,-0.0,0.42138564586639404,0.8715798258781433,0.14562951028347015,28.093660354614258,-1.1292400360107422,2.899399995803833,0.0,528439.0
1.0,-18.35546112060547,6.685893535614014,20.235483169555664,22.081443786621094,0.0,0.0,-0.0,-0.0,0.42138564586639404,0.8715798258781433,0.14562951028347015,28.093660354614258,-1.1292400360107422,2.899399995803833,0.0,528440.0
1.0,-52.69623947143555,-24.238550186157227,47.66157150268555,75.1550521850586,0.0,0.0,-0.0,-0.0,0.42138564586639404,0.8715798258781433,0.14562951028347015,28.093660354614258,-1.1292400360107422,2.899399995803833,0.0,528441.0
1.0,-62.02153396606445,-42.79404830932617,54.740478515625,90.22846984863281,0.0,0.0,-0.0,-0.0,0.42120254039764404,0.8890358209609985,0.13269008696079254,23.66826057434082,-1.0834599733352661,1.6023000478744507,0.0,528442.0
1.0,-41.10154724121094,-38.84665298461914,32.29768371582031,59.54703140258789,0.0,0.0,-0.0,-0.0,0.42120254039764404,0.8890358209609985,0.13269008696079254,23.66826057434082,-1.0834599733352661,1.6023000478744507,0.0,528443.0
1.0,0.0668201670050621,-14.365572929382324,-12.36094856262207,-2.7247860431671143,0.0,0.0,-0.0,-0.0,0.42120254039764404,0.8890358209609985,0.13269008696079254,23.66826057434082,-1.0834599733352661,1.6023000478744507,0.0,528444.0
1.0,40.673099517822266,17.791677474975586,-55.474754333496094,-65.7159423828125,0.0,0.0,-0.0,-0.0,0.42120254039764404,0.8890358209609985,0.13269008696079254,23.66826057434082,-1.0834599733352661,1.6023000478744507,0.0,528445.0
1.0,59.375160217285156,40.632694244384766,-71.58296966552734,-95.35945129394531,0.0,0.0,-0.0,-0.0,0.42120254039764404,0.8890358209609985,0.13269008696079254,23.66826057434082,-1.0834599733352661,1.6023000478744507,0.0,528446.0
1.0,47.27412414550781,42.098819732666016,-48.74144744873047,-74.20864868164062,0.0,0.0,-0.0,-0.0,0.42120254039764404,0.8890358209609985,0.13269008696079254,23.66826057434082,-1.0834599733352661,1.6023000478744507,0.0,528447.0
1.0,10.832164764404297,21.704309463500977,3.9813599586486816,-13.737260818481445,0.0,0.0,-0.0,-0.0,0.42120254039764404,0.8890358209609985,0.13269008696079254,23.66826057434082,-1.0834599733352661,1.6023000478744507,0.0,528448.0
1.0,-32.29042053222656,-9.538671493530273,59.097599029541016,53.51051330566406,0.0,0.0,-0.0,-0.0,0.42120254039764404,0.8890358209609985,0.13269008696079254,23.66826057434082,-1.0834599733352661,1.6023000478744507,0.0,528449.0
1.0,-57.1716194152832,-34.93661117553711,83.93729400634766,90.80561828613281,0.0,0.0,-0.0,-0.0,0.42120254039764404,0.8890358209609985,0.13269008696079254,23.66826057434082,-1.0834599733352661,1.6023000478744507,0.0,528450.0
1.0,-47.96329116821289,-41.08978271484375,61.352439880371094,75.8487777709961,0.0,0.0,-0.0,-0.0,0.42120254039764404,0.8890358209609985,0.13269008696079254,23.66826057434082,-1.0834599733352661,1.6023000478744507,0.0,528451.0
1.0,-12.027381896972656,-25.429922103881836,2.694880723953247,18.288667678833008,0.0,0.0,-0.0,-0.0,0.42401015758514404,0.9142432808876038,0.12023895233869553,-1.892240047454834,-0.1678600013256073,-2.1821799278259277,0.0,528452.0
1.0,29.731962203979492,3.0184714794158936,-59.84104919433594,-45.108577728271484,0.0,0.0,-0.0,-0.0,0.42401015758514404,0.9142432808876038,0.12023895233869553,-1.892240047454834,-0.1678600013256073,-2.1821799278259277,0.0,528453.0
1.0,56.787593841552734,28.913583755493164,-91.2559585571289,-77.55467224121094,0.0,0.0,-0.0,-0.0,0.42401015758514404,0.9142432808876038,0.12023895233869553,-1.892240047454834,-0.1678600013256073,-2.1821799278259277,0.0,528454.0
1.0,54.65918731689453,38.544700622558594,-73.05474090576172,-64.66819763183594,0.0,0.0,-0.0,0.0,0.42401015758514404,0.9142432808876038,0.12023895233869553,-1.892240047454834,-0.1678600013256073,-2.1821799278259277,0.0,528455.0
1.0,22.61701202392578,27.18429183959961,-15.246980667114258,-18.740436553955078,0.0,0.0,-0.0,0.0,0.42401015758514404,0.9142432808876038,0.12023895233869553,-1.892240047454834,-0.1678600013256073,-2.1821799278259277,0.0,528456.0
1.0,-22.17778968811035,1.3040518760681152,51.09453201293945,33.28384017944336,0.0,0.0,-0.0,0.0,0.42401015758514404,0.9142432808876038,0.12023895233869553,-1.892240047454834,-0.1678600013256073,-2.1821799278259277,0.0,528457.0
1.0,-55.21717071533203,-25.23462677001953,91.44229125976562,65.44377136230469,0.0,0.0,-0.0,0.0,0.42401015758514404,0.9142432808876038,0.12023895233869553,-1.892240047454834,-0.1678600013256073,-2.1821799278259277,0.0,528458.0
1.0,-59.78691864013672,-38.188819885253906,82.87995910644531,62.99339294433594,0.0,0.0,-0.0,0.0,0.42401015758514404,0.9142432808876038,0.12023895233869553,-1.892240047454834,-0.1678600013256073,-2.1821799278259277,0.0,528459.0
1.0,-33.90772247314453,-30.31159019470215,27.668079376220703,28.74400520324707,0.0,0.0,-0.0,0.0,0.42401015758514404,0.9142432808876038,0.12023895233869553,-1.892240047454834,-0.1678600013256073,-2.1821799278259277,0.0,528460.0
1.0,8.527690887451172,-5.434071063995361,-40.178401947021484,-18.277315139770508,0.0,0.0,-0.0,0.0,0.42401015758514404,0.9142432808876038,0.12023895233869553,-1.892240047454834,-0.1678600013256073,-2.1821799278259277,0.0,528461.0
1.0,43.154212951660156,23.15146827697754,-74.47917938232422,-53.2126579284668,0.0,0.0,-0.0,0.0,0.42755016684532166,0.9124732613563538,0.12176482379436493,-13.611920356750488,1.7091200351715088,-5.203660011291504,0.0,528462.0
1.0,50.77783203125,39.561912536621094,-55.987056732177734,-58.11425018310547,0.0,0.0,-0.0,0.0,0.42755016684532166,0.9124732613563538,0.12176482379436493,-13.611920356750488,1.7091200351715088,-5.203660011291504,0.0,528463.0
1.0,32.59568786621094,34.66227340698242,-7.732762813568115,-31.77402114868164,0.0,0.0,-0.0,0.0,0.42755016684532166,0.9124732613563538,0.12176482379436493,-13.611920356750488,1.7091200351715088,-5.203660011291504,0.0,528464.0
1.0,5.9053449630737305,11.353879928588867,29.627416610717773,8.727216720581055,0.0,0.0,-0.0,0.0,0.42755016684532166,0.9124732613563538,0.12176482379436493,-13.611920356750488,1.7091200351715088,-5.203660011291504,0.0,528465.0
1.0,-16.4436092376709,-17.96832847595215,34.45225524902344,39.08765411376953,0.0,0.0,-0.0,0.0,0.42755016684532166,0.9124732613563538,0.12176482379436493,-13.611920356750488,1.7091200351715088,-5.203660011291504,0.0,528466.0
1.0,-32.38243865966797,-38.04990768432617,17.558786392211914,43.69580078125,0.0,0.0,-0.0,0.0,0.42755016684532166,0.9124732613563538,0.12176482379436493,-13.611920356750488,1.7091200351715088,-5.203660011291504,0.0,528467.0
1.0,-37.46174621582031,-38.082088470458984,-0.9500542879104614,22.27128028869629,0.0,0.0,-0.0,0.0,0.42755016684532166,0.9124732613563538,0.12176482379436493,-13.611920356750488,1.7091200351715088,-5.203660011291504,0.0,528468.0
1.0,-23.887760162353516,-17.674468994140625,-17.47770118713379,-12.663491249084473,0.0,0.0,-0.0,0.0,0.42755016684532166,0.9124732613563538,0.12176482379436493,-13.611920356750488,1.7091200351715088,-5.203660011291504,0.0,528469.0
1.0,4.414050102233887,12.260391235351562,-34.46764373779297,-40.606571197509766,0.0,0.0,-0.0,0.0,0.42755016684532166,0.9124732613563538,0.12176482379436493,-13.611920356750488,1.7091200351715088,-5.203660011291504,0.0,528470.0
1.0,30.735492706298828,35.11919403076172,-39.207420349121094,-42.66086196899414,0.0,0.0,-0.0,0.0,0.42755016684532166,0.9124732613563538,0.12176482379436493,-13.611920356750488,1.7091200351715088,-5.203660011291504,0.0,528471.0
1.0,39.49166488647461,38.14958190917969,-16.670724868774414,-16.830760955810547,0.0,0.0,-0.0,0.0,0.42486464977264404,0.8844581842422485,0.13391079008579254,-2.7010200023651123,-0.0763000026345253,-7.630000114440918,0.0,528472.0
1.0,25.005352020263672,19.972169876098633,25.273176193237305,18.460285186767578,0.0,0.0,-0.0,0.0,0.42486464977264404,0.8844581842422485,0.13391079008579254,-2.7010200023651123,-0.0763000026345253,-7.630000114440918,0.0,528473.0
1.0,-6.927145004272461,-9.112499237060547,61.26340103149414,43.030364990234375,0.0,0.0,-0.0,0.0,0.42486464977264404,0.8844581842422485,0.13391079008579254,-2.7010200023651123,-0.0763000026345253,-7.630000114440918,0.0,528474.0
1.0,-37.44370651245117,-33.078250885009766,68.19669342041016,47.82844161987305,0.0,0.0,-0.0,0.0,0.42486464977264404,0.8844581842422485,0.13391079008579254,-2.7010200023651123,-0.0763000026345253,-7.630000114440918,0.0,528475.0
1.0,-41.52980041503906,-38.70207977294922,36.02323532104492,30.798877716064453,0.0,0.0,-0.0,0.0,0.42486464977264404,0.8844581842422485,0.13391079008579254,-2.7010200023651123,-0.0763000026345253,-7.630000114440918,0.0,528476.0
1.0,-13.09505844116211,-22.73450469970703,-22.69634246826172,-2.309206247329712,0.0,0.0,-0.0,0.0,0.42486464977264404,0.8844581842422485,0.13391079008579254,-2.7010200023651123,-0.0763000026345253,-7.630000114440918,0.0,528477.0
1.0,22.75201988220215,6.333678245544434,-73.16694641113281,-36.147972106933594,0.0,0.0,-0.0,0.0,0.42486464977264404,0.8844581842422485,0.13391079008579254,-2.7010200023651123,-0.0763000026345253,-7.630000114440918,0.0,528478.0
1.0,37.233360290527344,32.65399932861328,-81.27410888671875,-54.115028381347656,0.0,0.0,-0.0,0.0,0.42486464977264404,0.8844581842422485,0.13391079008579254,-2.7010200023651123,-0.0763000026345253,-7.630000114440918,0.0,528479.0
1.0,27.492111206054688,41.64999771118164,-41.38705825805664,-45.511932373046875,0.0,0.0,-0.0,0.0,0.42486464977264404,0.8844581842422485,0.13391079008579254,-2.7010200023651123,-0.0763000026345253,-7.630000114440918,0.0,528480.0
1.0,7.538126468658447,28.35822296142578,18.580312728881836,-10.187444686889648,0.0,0.0,-0.0,0.0,0.42486464977264404,0.8844581842422485,0.13391079008579254,-2.7010200023651123,-0.0763000026345253,-7.630000114440918,0.0,528481.0
1.0,-14.252708435058594,-0.2648826241493225,61.635921478271484,34.20603561401367,0.0,0.0,-0.0,0.0,0.42199599742889404,0.8702370524406433,0.14263878762722015,16.297679901123047,-1.1597599983215332,-6.08873987197876,0.0,528482.0
1.0,-34.652042388916016,-29.236698150634766,70.2445297241211,59.75456619262695,0.0,0.0,-0.0,0.0,0.42199599742889404,0.8702370524406433,0.14263878762722015,16.297679901123047,-1.1597599983215332,-6.08873987197876,0.0,528483.0
1.0,-41.49970245361328,-42.739723205566406,46.955631256103516,49.6852912902832,0.0,0.0,-0.0,0.0,0.42199599742889404,0.8702370524406433,0.14263878762722015,16.297679901123047,-1.1597599983215332,-6.08873987197876,0.0,528484.0
1.0,-20.312007904052734,-32.800880432128906,1.051266074180603,8.293176651000977,0.0,0.0,-0.0,0.0,0.42199599742889404,0.8702370524406433,0.14263878762722015,16.297679901123047,-1.1597599983215332,-6.08873987197876,0.0,528485.0
1.0,20.4349365234375,-4.639368534088135,-47.63913345336914,-41.89860916137695,0.0,0.0,-0.0,0.0,0.42199599742889404,0.8702370524406433,0.14263878762722015,16.297679901123047,-1.1597599983215332,-6.08873987197876,0.0,528486.0
1.0,50.94936752319336,25.93660545349121,-68.44263458251953,-70.12053680419922,0.0,0.0,-0.0,0.0,0.42199599742889404,0.8702370524406433,0.14263878762722015,16.297679901123047,-1.1597599983215332,-6.08873987197876,0.0,528487.0
1.0,48.17973709106445,41.642784118652344,-43.95743942260742,-54.58157730102539,0.0,0.0,-0.0,0.0,0.42199599742889404,0.8702370524406433,0.14263878762722015,16.297679901123047,-1.1597599983215332,-6.08873987197876,0.0,528488.0
1.0,14.677703857421875,33.92169952392578,11.29166316986084,-0.1090962365269661,0.0,0.0,-0.0,0.0,0.42199599742889404,0.8702370524406433,0.14263878762722015,16.297679901123047,-1.1597599983215332,-6.08873987197876,0.0,528489.0
1.0,-22.779489517211914,7.409270286560059,58.4207649230957,57.288238525390625,0.0,0.0,-0.0,0.0,0.42199599742889404,0.8702370524406433,0.14263878762722015,16.297679901123047,-1.1597599983215332,-6.08873987197876,0.0,528490.0
1.0,-37.163536071777344,-23.55255699157715,60.45956039428711,75.49063873291016,0.0,0.0,-0.0,0.0,0.42199599742889404,0.8702370524406433,0.14263878762722015,16.297679901123047,-1.1597599983215332,-6.08873987197876,0.0,528491.0
1.0,-24.587831497192383,-42.341644287109375,14.85142993927002,44.16924285888672,0.0,0.0,-0.0,0.0,0.42016494274139404,0.8832374811172485,0.14208948612213135,24.50756072998047,-2.8231000900268555,-2.456860065460205,0.0,528492.0
1.0,-1.3731038570404053,-38.55996322631836,-41.28000259399414,-10.73969554901123,0.0,0.0,-0.0,0.0,0.42016494274139404,0.8832374811172485,0.14208948612213135,24.50756072998047,-2.8231000900268555,-2.456860065460205,0.0,528493.0
1.0,12.351398468017578,-13.985485076904297,-66.85567474365234,-54.398643493652344,0.0,0.0,-0.0,0.0,0.42016494274139404,0.8832374811172485,0.14208948612213135,24.50756072998047,-2.8231000900268555,-2.456860065460205,0.0,528494.0
1.0,8.90263557434082,18.43942642211914,-50.74251174926758,-64.88246154785156,0.0,0.0,-0.0,0.0,0.42016494274139404,0.8832374811172485,0.14208948612213135,24.50756072998047,-2.8231000900268555,-2.456860065460205,0.0,528495.0
1.0,-2.6556661128997803,41.362117767333984,-10.36357307434082,-40.70347213745117,0.0,0.0,-0.0,0.0,0.42016494274139404,0.8832374811172485,0.14208948612213135,24.50756072998047,-2.8231000900268555,-2.456860065460205,0.0,528496.0
1.0,-11.33764934539795,42.362239837646484,31.30962562561035,2.876692771911621,0.0,0.0,-0.0,0.0,0.42016494274139404,0.8832374811172485,0.14208948612213135,24.50756072998047,-2.8231000900268555,-2.456860065460205,0.0,528497.0
1.0,-15.637203216552734,21.179006576538086,59.343658447265625,45.67904281616211,0.0,0.0,-0.0,0.0,0.42016494274139404,0.8832374811172485,0.14208948612213135,24.50756072998047,-2.8231000900268555,-2.456860065460205,0.0,528498.0
1.0,-16.366579055786133,-10.650015830993652,63.22492218017578,69.36344909667969,0.0,0.0,-0.0,0.0,0.42016494274139404,0.8832374811172485,0.14208948612213135,24.50756072998047,-2.8231000900268555,-2.456860065460205,0.0,528499.0
1.0,-6.6014885902404785,-36.27387237548828,38.04119873046875,59.63294219970703,0.0,0.0,-0.0,0.0,0.42016494274139404,0.8832374811172485,0.14208948612213135,24.50756072998047,-2.8231000900268555,-2.456860065460205,0.0,528500.0
1.0,17.240238189697266,-42.06316375732422,-4.537335395812988,17.151899337768555,0.0,0.0,-0.0,0.0,0.42016494274139404,0.8832374811172485,0.14208948612213135,24.50756072998047,-2.8231000900268555,-2.456860065460205,0.0,528501.0
1.0,39.38300323486328,-25.07497787475586,-41.67049026489258,-36.87051010131836,0.0,0.0,-0.0,0.0,0.42217910289764404,0.9155250191688538,0.12499967962503433,11.032979965209961,-0.3967599868774414,0.946120023727417,0.0,528502.0
1.0,40.62986755371094,5.28339958190918,-58.16335678100586,-74.89634704589844,0.0,0.0,-0.0,0.0,0.42217910289764404,0.9155250191688538,0.12499967962503433,11.032979965209961,-0.3967599868774414,0.946120023727417,0.0,528503.0
1.0,21.285823822021484,32.55087661743164,-50.474327087402344,-78.21765899658203,0.0,0.0,-0.0,0.0,0.42217910289764404,0.9155250191688538,0.12499967962503433,11.032979965209961,-0.3967599868774414,0.946120023727417,0.0,528504.0
1.0,-4.171333312988281,42.13179397583008,-23.949792861938477,-44.992183685302734,0.0,0.0,-0.0,0.0,0.42217910289764404,0.9155250191688538,0.12499967962503433,11.032979965209961,-0.3967599868774414,0.946120023727417,0.0,528505.0
1.0,-22.85322380065918,29.176828384399414,8.574627876281738,7.831806659698486,0.0,0.0,-0.0,0.0,0.42217910289764404,0.9155250191688538,0.12499967962503433,11.032979965209961,-0.3967599868774414,0.946120023727417,0.0,528506.0
1.0,-30.91075325012207,0.6367647647857666,35.53056335449219,55.201515197753906,0.0,0.0,-0.0,0.0,0.42217910289764404,0.9155250191688538,0.12499967962503433,11.032979965209961,-0.3967599868774414,0.946120023727417,0.0,528507.0
1.0,-31.65196418762207,-28.768959045410156,50.01838684082031,77.53404235839844,0.0,0.0,0.0,0.0,0.42217910289764404,0.9155250191688538,0.12499967962503433,11.032979965209961,-0.3967599868774414,0.946120023727417,0.0,528508.0
1.0,-26.834774017333984,-43.59282302856445,45.50167465209961,66.4669418334961,0.0,0.0,0.0,0.0,0.42217910289764404,0.9155250191688538,0.12499967962503433,11.032979965209961,-0.3967599868774414,0.946120023727417,0.0,528509.0
1.0,-12.582266807556152,-35.57437515258789,19.837839126586914,26.25335121154785,0.0,0.0,0.0,0.0,0.42217910289764404,0.9155250191688538,0.12499967962503433,11.032979965209961,-0.3967599868774414,0.946120023727417,0.0,528510.0
1.0,11.919113159179688,-8.686237335205078,-17.414236068725586,-25.45094871520996,0.0,0.0,0.0,0.0,0.42217910289764404,0.9155250191688538,0.12499967962503433,11.032979965209961,-0.3967599868774414,0.946120023727417,0.0,528511.0
1.0,35.54718017578125,22.534650802612305,-47.144039154052734,-61.90316390991211,0.0,0.0,0.0,0.0,0.42352187633514404,0.937314510345459,0.11401338130235672,-12.253780364990234,0.701960027217865,2.990959882736206,0.0,528512.0
1.0,42.529598236083984,41.047237396240234,-51.231590270996094,-61.952239990234375,0.0,0.0,0.0,0.0,0.42352187633514404,0.937314510345459,0.11401338130235672,-12.253780364990234,0.701960027217865,2.990959882736206,0.0,528513.0
1.0,28.177207946777344,37.27456283569336,-24.575963973999023,-25.25323486328125,0.0,0.0,0.0,0.0,0.42352187633514404,0.937314510345459,0.11401338130235672,-12.253780364990234,0.701960027217865,2.990959882736206,0.0,528514.0
1.0,1.3286499977111816,13.92897891998291,18.877994537353516,25.4771785736084,0.0,0.0,0.0,0.0,0.42352187633514404,0.937314510345459,0.11401338130235672,-12.253780364990234,0.701960027217865,2.990959882736206,0.0,528515.0
1.0,-27.04073715209961,-16.434640884399414,52.58305358886719,57.560699462890625,0.0,0.0,0.0,0.0,0.42352187633514404,0.937314510345459,0.11401338130235672,-12.253780364990234,0.701960027217865,2.990959882736206,0.0,528516.0
1.0,-46.74726867675781,-37.54133224487305,54.039588928222656,49.948829650878906,0.0,0.0,0.0,0.0,0.42352187633514404,0.937314510345459,0.11401338130235672,-12.253780364990234,0.701960027217865,2.990959882736206,0.0,528517.0
1.0,-43.57012939453125,-37.77809524536133,17.335542678833008,5.709578514099121,0.0,0.0,0.0,0.0,0.42352187633514404,0.937314510345459,0.11401338130235672,-12.253780364990234,0.701960027217865,2.990959882736206,0.0,528518.0
1.0,-11.044843673706055,-17.16679573059082,-41.439273834228516,-51.43412780761719,0.0,0.0,0.0,0.0,0.42352187633514404,0.937314510345459,0.11401338130235672,-12.253780364990234,0.701960027217865,2.990959882736206,0.0,528519.0
1.0,32.92170333862305,12.822702407836914,-84.29370880126953,-87.49774169921875,0.0,0.0,0.0,0.0,0.42352187633514404,0.937314510345459,0.11401338130235672,-12.253780364990234,0.701960027217865,2.990959882736206,0.0,528520.0
1.0,56.16400909423828,35.75046920776367,-75.31143951416016,-74.93474578857422,0.0,0.0,0.0,0.0,0.42352187633514404,0.937314510345459,0.11401338130235672,-12.253780364990234,0.701960027217865,2.990959882736206,0.0,528521.0
1.0,41.41728210449219,39.19428253173828,-16.921022415161133,-13.50522518157959,0.0,0.0,0.0,0.0,0.41613662242889404,0.920163631439209,0.12548795342445374,-16.343460083007812,-0.7630000114440918,-2.1211400032043457,0.0,528522.0
1.0,1.011778473854065,21.644432067871094,51.82158279418945,63.73757553100586,0.0,0.0,0.0,0.0,0.41613662242889404,0.920163631439209,0.12548795342445374,-16.343460083007812,-0.7630000114440918,-2.1211400032043457,0.0,528523.0
1.0,-37.41632843017578,-7.103230953216553,91.7634506225586,111.81938934326172,0.0,0.0,0.0,0.0,0.41613662242889404,0.920163631439209,0.12548795342445374,-16.343460083007812,-0.7630000114440918,-2.1211400032043457,0.0,528524.0
1.0,-53.53486251831055,-31.28684425354004,86.51405334472656,104.5358657836914,0.0,0.0,0.0,0.0,0.41613662242889404,0.920163631439209,0.12548795342445374,-16.343460083007812,-0.7630000114440918,-2.1211400032043457,0.0,528525.0
1.0,-42.260032653808594,-37.696861267089844,43.383724212646484,47.865478515625,0.0,0.0,0.0,0.0,0.41613662242889404,0.920163631439209,0.12548795342445374,-16.343460083007812,-0.7630000114440918,-2.1211400032043457,0.0,528526.0
1.0,-9.79942512512207,-23.26568603515625,-14.81480598449707,-28.463481903076172,0.0,0.0,0.0,0.0,0.41613662242889404,0.920163631439209,0.12548795342445374,-16.343460083007812,-0.7630000114440918,-2.1211400032043457,0.0,528527.0
1.0,30.0382137298584,3.6219072341918945,-62.469303131103516,-88.5794906616211,0.0,0.0,0.0,0.0,0.41613662242889404,0.920163631439209,0.12548795342445374,-16.343460083007812,-0.7630000114440918,-2.1211400032043457,0.0,528528.0
1.0,58.165584564208984,27.994726181030273,-80.00130462646484,-106.19214630126953,0.0,0.0,0.0,0.0,0.41613662242889404,0.920163631439209,0.12548795342445374,-16.343460083007812,-0.7630000114440918,-2.1211400032043457,0.0,528529.0
1.0,58.11542510986328,36.3655891418457,-60.642704010009766,-75.53377532958984,0.0,0.0,0.0,0.0,0.41613662242889404,0.920163631439209,0.12548795342445374,-16.343460083007812,-0.7630000114440918,-2.1211400032043457,0.0,528530.0
1.0,27.234725952148438,24.27849006652832,-14.55364990234375,-13.699527740478516,0.0,0.0,0.0,0.0,0.41613662242889404,0.920163631439209,0.12548795342445374,-16.343460083007812,-0.7630000114440918,-2.1211400032043457,0.0,528531.0
1.0,-20.666776657104492,-1.7601054906845093,37.855159759521484,49.64638900756836,0.0,0.0,0.0,0.0,0.41784560680389404,0.8819557428359985,0.14160120487213135,6.897520065307617,-1.815940022468567,-0.045779999345541,0.0,528532.0
1.0,-61.525394439697266,-28.093429565429688,72.30020904541016,86.15369415283203,0.0,0.0,0.0,0.0,0.41784560680389404,0.8819557428359985,0.14160120487213135,6.897520065307617,-1.815940022468567,-0.045779999345541,0.0,528533.0
1.0,-70.76238250732422,-40.311981201171875,66.52838897705078,79.50224304199219,0.0,0.0,0.0,0.0,0.41784560680389404,0.8819557428359985,0.14160120487213135,6.897520065307617,-1.815940022468567,-0.045779999345541,0.0,528534.0
1.0,-38.22831344604492,-30.76366424560547,18.711811065673828,34.227210998535156,0.0,0.0,0.0,0.0,0.41784560680389404,0.8819557428359985,0.14160120487213135,6.897520065307617,-1.815940022468567,-0.045779999345541,0.0,528535.0
1.0,20.171977996826172,-3.6068663597106934,-42.70359420776367,-24.644634246826172,0.0,0.0,0.0,0.0,0.41784560680389404,0.8819557428359985,0.14160120487213135,6.897520065307617,-1.815940022468567,-0.045779999345541,0.0,528536.0
1.0,67.98532104492188,26.70956039428711,-77.24761199951172,-64.57429504394531,0.0,0.0,0.0,-0.0,0.41784560680389404,0.8819557428359985,0.14160120487213135,6.897520065307617,-1.815940022468567,-0.045779999345541,0.0,528537.0
1.0,74.61572265625,43.304168701171875,-64.06050109863281,-66.04444885253906,0.0,0.0,0.0,-0.0,0.41784560680389404,0.8819557428359985,0.14160120487213135,6.897520065307617,-1.815940022468567,-0.045779999345541,0.0,528538.0
1.0,40.130977630615234,36.77240753173828,-18.35761833190918,-35.18294906616211,0.0,0.0,0.0,-0.0,0.41784560680389404,0.8819557428359985,0.14160120487213135,6.897520065307617,-1.815940022468567,-0.045779999345541,0.0,528539.0
1.0,-11.433466911315918,10.469667434692383,26.374433517456055,6.261192321777344,0.0,0.0,0.0,-0.0,0.41784560680389404,0.8819557428359985,0.14160120487213135,6.897520065307617,-1.815940022468567,-0.045779999345541,0.0,528540.0
1.0,-53.89387512207031,-21.655275344848633,49.53324890136719,37.62052917480469,0.0,0.0,0.0,-0.0,0.41784560680389404,0.8819557428359985,0.14160120487213135,6.897520065307617,-1.815940022468567,-0.045779999345541,0.0,528541.0
1.0,-68.5848388671875,-42.203407287597656,50.95972442626953,45.94629669189453,0.0,0.0,0.0,-0.0,0.42462050914764404,0.8742653131484985,0.14129602909088135,24.965360641479492,-1.3733999729156494,2.9451799392700195,0.0,528542.0
1.0,-49.80060577392578,-39.83217239379883,35.34294509887695,29.57229232788086,0.0,0.0,0.0,-0.0,0.42462050914764404,0.8742653131484985,0.14129602909088135,24.965360641479492,-1.3733999729156494,2.9451799392700195,0.0,528543.0
1.0,-8.952298164367676,-15.9290132522583,4.738461494445801,-0.47647809982299805,0.0,0.0,0.0,-0.0,0.42462050914764404,0.8742653131484985,0.14129602909088135,24.965360641479492,-1.3733999729156494,2.9451799392700195,0.0,528544.0
1.0,31.556379318237305,16.492328643798828,-29.65549659729004,-26.78241729736328,0.0,0.0,0.0,-0.0,0.42462050914764404,0.8742653131484985,0.14129602909088135,24.965360641479492,-1.3733999729156494,2.9451799392700195,0.0,528545.0
1.0,51.15127182006836,39.898643493652344,-45.2373046875,-35.02027130126953,0.0,0.0,0.0,-0.0,0.42462050914764404,0.8742653131484985,0.14129602909088135,24.965360641479492,-1.3733999729156494,2.9451799392700195,0.0,528546.0
1.0,42.98572540283203,41.67731857299805,-28.652273178100586,-20.80842399597168,0.0,0.0,0.0,-0.0,0.42462050914764404,0.8742653131484985,0.14129602909088135,24.965360641479492,-1.3733999729156494,2.9451799392700195,0.0,528547.0
1.0,15.402634620666504,21.106605529785156,9.31139850616455,8.609501838684082,0.0,0.0,0.0,-0.0,0.42462050914764404,0.8742653131484985,0.14129602909088135,24.965360641479492,-1.3733999729156494,2.9451799392700195,0.0,528548.0
1.0,-16.146678924560547,-10.816122055053711,41.624229431152344,37.31697082519531,0.0,0.0,0.0,-0.0,0.42462050914764404,0.8742653131484985,0.14129602909088135,24.965360641479492,-1.3733999729156494,2.9451799392700195,0.0,528549.0
1.0,-36.813880920410156,-37.23002624511719,45.93331527709961,47.01024627685547,0.0,0.0,0.0,-0.0,0.42462050914764404,0.8742653131484985,0.14129602909088135,24.965360641479492,-1.3733999729156494,2.9451799392700195,0.0,528550.0
1.0,-39.13785934448242,-43.90741729736328,21.540042877197266,29.207426071166992,0.0,0.0,0.0,-0.0,0.42462050914764404,0.8742653131484985,0.14129602909088135,24.965360641479492,-1.3733999729156494,2.9451799392700195,0.0,528551.0
1.0,-23.365392684936523,-27.12649154663086,-14.679819107055664,-6.92863655090332,0.0,0.0,0.0,-0.0,0.42199599742889404,0.8909279108047485,0.13037076592445374,16.358720779418945,-1.0376800298690796,0.0,0.0,528552.0
1.0,8.34111213684082,4.158881187438965,-46.40959167480469,-43.188411712646484,0.0,0.0,0.0,-0.0,0.42199599742889404,0.8909279108047485,0.13037076592445374,16.358720779418945,-1.0376800298690796,0.0,0.0,528553.0
1.0,45.94242858886719,33.06892395019531,-62.457637786865234,-62.20551681518555,0.0,0.0,0.0,-0.0,0.42199599742889404,0.8909279108047485,0.13037076592445374,16.358720779418945,-1.0376800298690796,0.0,0.0,528554.0
1.0,64.7632827758789,43.97116470336914,-51.490333557128906,-52.33159255981445,0.0,0.0,0.0,-0.0,0.42199599742889404,0.8909279108047485,0.13037076592445374,16.358720779418945,-1.0376800298690796,0.0,0.0,528555.0
1.0,45.12832260131836,31.33748435974121,-11.532380104064941,-16.532684326171875,0.0,0.0,0.0,-0.0,0.42199599742889404,0.8909279108047485,0.13037076592445374,16.358720779418945,-1.0376800298690796,0.0,0.0,528556.0
1.0,-4.745929718017578,2.3974356651306152,39.28654098510742,27.35035514831543,0.0,0.0,0.0,-0.0,0.42199599742889404,0.8909279108047485,0.13037076592445374,16.358720779418945,-1.0376800298690796,0.0,0.0,528557.0
1.0,-55.0286750793457,-27.23288917541504,72.6208724975586,58.46059036254883,0.0,0.0,0.0,-0.0,0.42199599742889404,0.8909279108047485,0.13037076592445374,16.358720779418945,-1.0376800298690796,0.0,0.0,528558.0
1.0,-77.04966735839844,-41.74679183959961,69.55018615722656,62.60509490966797,0.0,0.0,0.0,-0.0,0.42199599742889404,0.8909279108047485,0.13037076592445374,16.358720779418945,-1.0376800298690796,0.0,0.0,528559.0
1.0,-59.69682693481445,-33.589969635009766,31.9848690032959,37.887508392333984,0.0,0.0,0.0,-0.0,0.42199599742889404,0.8909279108047485,0.13037076592445374,16.358720779418945,-1.0376800298690796,0.0,0.0,528560.0
1.0,-10.982930183410645,-7.482000350952148,-21.133586883544922,-4.629677772521973,0.0,0.0,0.0,-0.0,0.42199599742889404,0.8909279108047485,0.13037076592445374,16.358720779418945,-1.0376800298690796,0.0,0.0,528561.0
1.0,45.35018539428711,22.1574764251709,-65.63748931884766,-44.883140563964844,0.0,0.0,0.0,-0.0,0.42309463024139404,0.9072852730751038,0.11517304182052612,2.456860065460205,-0.045779999345541,-0.5646200180053711,0.0,528562.0
1.0,76.5199966430664,38.925262451171875,-81.42361450195312,-61.18865203857422,0.0,0.0,0.0,-0.0,0.42309463024139404,0.9072852730751038,0.11517304182052612,2.456860065460205,-0.045779999345541,-0.5646200180053711,0.0,528563.0
1.0,62.86479568481445,33.96619415283203,-58.47289276123047,-44.2005615234375,0.0,0.0,0.0,-0.0,0.42309463024139404,0.9072852730751038,0.11517304182052612,2.456860065460205,-0.045779999345541,-0.5646200180053711,0.0,528564.0
1.0,12.888901710510254,10.76717758178711,-1.7625155448913574,-4.356372356414795,0.0,0.0,0.0,-0.0,0.42309463024139404,0.9072852730751038,0.11517304182052612,2.456860065460205,-0.045779999345541,-0.5646200180053711,0.0,528565.0
1.0,-45.483917236328125,-17.91005516052246,65.79412841796875,36.25322723388672,0.0,0.0,0.0,-0.0,0.42309463024139404,0.9072852730751038,0.11517304182052612,2.456860065460205,-0.045779999345541,-0.5646200180053711,0.0,528566.0
1.0,-78.83306884765625,-36.78386306762695,108.3686294555664,55.93548583984375,0.0,0.0,0.0,-0.0,0.42309463024139404,0.9072852730751038,0.11517304182052612,2.456860065460205,-0.045779999345541,-0.5646200180053711,0.0,528567.0
1.0,-65.71656799316406,-35.487300872802734,95.564453125,44.19657897949219,0.0,0.0,0.0,-0.0,0.42309463024139404,0.9072852730751038,0.11517304182052612,2.456860065460205,-0.045779999345541,-0.5646200180053711,0.0,528568.0
1.0,-12.496909141540527,-14.364714622497559,26.835290908813477,8.172531127929688,0.0,0.0,0.0,-0.0,0.42309463024139404,0.9072852730751038,0.11517304182052612,2.456860065460205,-0.045779999345541,-0.5646200180053711,0.0,528569.0
1.0,50.23882293701172,15.289750099182129,-60.51713562011719,-31.127498626708984,0.0,0.0,0.0,-0.0,0.42309463024139404,0.9072852730751038,0.11517304182052612,2.456860065460205,-0.045779999345541,-0.5646200180053711,0.0,528570.0
1.0,86.86485290527344,37.06034469604492,-114.25389099121094,-50.65496063232422,0.0,0.0,0.0,-0.0,0.42309463024139404,0.9072852730751038,0.11517304182052612,2.456860065460205,-0.045779999345541,-0.5646200180053711,0.0,528571.0
1.0,77.09077453613281,38.68045425415039,-104.36233520507812,-39.2752799987793,0.0,0.0,0.0,-0.0,0.42718395590782166,0.9069190621376038,0.11248750239610672,-4.944240093231201,1.2360600233078003,-4.089680194854736,0.0,528572.0
1.0,25.997953414916992,19.171836853027344,-42.14164733886719,-4.338677883148193,0.0,0.0,0.0,-0.0,0.42718395590782166,0.9069190621376038,0.11248750239610672,-4.944240093231201,1.2360600233078003,-4.089680194854736,0.0,528573.0
1.0,-38.71305847167969,-10.927706718444824,33.51166915893555,33.127113342285156,0.0,0.0,0.0,-0.0,0.42718395590782166,0.9069190621376038,0.11248750239610672,-4.944240093231201,1.2360600233078003,-4.089680194854736,0.0,528574.0
1.0,-80.81720733642578,-35.29405212402344,82.72596740722656,49.75343322753906,0.0,0.0,0.0,-0.0,0.42718395590782166,0.9069190621376038,0.11248750239610672,-4.944240093231201,1.2360600233078003,-4.089680194854736,0.0,528575.0
1.0,-77.05116271972656,-40.64528274536133,82.96656036376953,34.07107925415039,0.0,0.0,0.0,-0.0,0.42718395590782166,0.9069190621376038,0.11248750239610672,-4.944240093231201,1.2360600233078003,-4.089680194854736,0.0,528576.0
1.0,-32.76479721069336,-24.1019229888916,39.96651077270508,-4.261534690856934,0.0,0.0,0.0,-0.0,0.42718395590782166,0.9069190621376038,0.11248750239610672,-4.944240093231201,1.2360600233078003,-4.089680194854736,0.0,528577.0
1.0,21.966968536376953,5.510879039764404,-17.14168357849121,-41.22122573852539,0.0,0.0,0.0,-0.0,0.42718395590782166,0.9069190621376038,0.11248750239610672,-4.944240093231201,1.2360600233078003,-4.089680194854736,0.0,528578.0
1.0,56.04826354980469,32.186431884765625,-57.879554748535156,-56.08979415893555,0.0,0.0,0.0,-0.0,0.42718395590782166,0.9069190621376038,0.11248750239610672,-4.944240093231201,1.2360600233078003,-4.089680194854736,0.0,528579.0
1.0,57.782470703125,41.24443054199219,-65.18765258789062,-42.36103820800781,0.0,0.0,0.0,-0.0,0.42718395590782166,0.9069190621376038,0.11248750239610672,-4.944240093231201,1.2360600233078003,-4.089680194854736,0.0,528580.0
1.0,33.065513610839844,27.83840560913086,-36.799171447753906,-7.199936389923096,0.0,0.0,0.0,-0.0,0.42718395590782166,0.9069190621376038,0.11248750239610672,-4.944240093231201,1.2360600233078003,-4.089680194854736,0.0,528581.0
1.0,-6.202337265014648,-0.7107779383659363,14.340632438659668,33.72096633911133,0.0,0.0,0.0,-0.0,0.42578014731407166,0.8975806832313538,0.12268035113811493,-8.148839950561523,0.7935199737548828,-6.3176398277282715,0.0,528582.0
1.0,-43.93720626831055,-29.2886905670166,60.18208312988281,62.29533004760742,0.0,0.0,0.0,-0.0,0.42578014731407166,0.8975806832313538,0.12268035113811493,-8.148839950561523,0.7935199737548828,-6.3176398277282715,0.0,528583.0
1.0,-58.926788330078125,-42.50993728637695,69.82041931152344,64.23077392578125,0.0,0.0,0.0,-0.0,0.42578014731407166,0.8975806832313538,0.12268035113811493,-8.148839950561523,0.7935199737548828,-6.3176398277282715,0.0,528584.0
1.0,-36.786903381347656,-32.766326904296875,33.605350494384766,35.387935638427734,0.0,0.0,0.0,-0.0,0.42578014731407166,0.8975806832313538,0.12268035113811493,-8.148839950561523,0.7935199737548828,-6.3176398277282715,0.0,528585.0
1.0,13.259303092956543,-4.87160587310791,-24.688547134399414,-13.184337615966797,0.0,0.0,0.0,-0.0,0.42578014731407166,0.8975806832313538,0.12268035113811493,-8.148839950561523,0.7935199737548828,-6.3176398277282715,0.0,528586.0
1.0,56.221839904785156,26.04726791381836,-62.80923843383789,-56.503379821777344,0.0,0.0,0.0,-0.0,0.42578014731407166,0.8975806832313538,0.12268035113811493,-8.148839950561523,0.7935199737548828,-6.3176398277282715,0.0,528587.0
1.0,59.09681701660156,42.7288703918457,-54.753170013427734,-71.2465591430664,0.0,0.0,0.0,-0.0,0.42578014731407166,0.8975806832313538,0.12268035113811493,-8.148839950561523,0.7935199737548828,-6.3176398277282715,0.0,528588.0
1.0,23.763919830322266,35.95170593261719,-12.88877010345459,-52.835445404052734,0.0,0.0,0.0,-0.0,0.42578014731407166,0.8975806832313538,0.12268035113811493,-8.148839950561523,0.7935199737548828,-6.3176398277282715,0.0,528589.0
1.0,-21.301109313964844,9.826860427856445,30.451839447021484,-11.983076095581055,0.0,0.0,-0.0,-0.0,0.42578014731407166,0.8975806832313538,0.12268035113811493,-8.148839950561523,0.7935199737548828,-6.3176398277282715,0.0,528590.0
1.0,-50.89152526855469,-21.30352020263672,52.16420364379883,34.3083381652832,0.0,0.0,-0.0,-0.0,0.42578014731407166,0.8975806832313538,0.12268035113811493,-8.148839950561523,0.7935199737548828,-6.3176398277282715,0.0,528591.0
1.0,-53.34846496582031,-40.65489959716797,45.24703598022461,63.826805114746094,0.0,0.0,-0.0,-0.0,0.42242324352264404,0.8827491998672485,0.13610805571079254,3.113039970397949,0.0763000026345253,-7.568960189819336,0.0,528592.0
1.0,-29.606592178344727,-37.57380676269531,14.851917266845703,59.33738327026367,0.0,0.0,-0.0,-0.0,0.42242324352264404,0.8827491998672485,0.13610805571079254,3.113039970397949,0.0763000026345253,-7.568960189819336,0.0,528593.0
1.0,7.7662129402160645,-13.502753257751465,-25.73982048034668,23.62871742248535,0.0,0.0,-0.0,-0.0,0.42242324352264404,0.8827491998672485,0.13610805571079254,3.113039970397949,0.0763000026345253,-7.568960189819336,0.0,528594.0
1.0,40.972103118896484,18.518495559692383,-59.935787200927734,-21.798280715942383,0.0,0.0,-0.0,-0.0,0.42242324352264404,0.8827491998672485,0.13610805571079254,3.113039970397949,0.0763000026345253,-7.568960189819336,0.0,528595.0
1.0,55.21307373046875,40.6119384765625,-72.10831451416016,-50.94069290161133,0.0,0.0,-0.0,-0.0,0.42242324352264404,0.8827491998672485,0.13610805571079254,3.113039970397949,0.0763000026345253,-7.568960189819336,0.0,528596.0
1.0,44.88792037963867,40.291038513183594,-52.2275390625,-48.79958724975586,0.0,0.0,-0.0,-0.0,0.42242324352264404,0.8827491998672485,0.13610805571079254,3.113039970397949,0.0763000026345253,-7.568960189819336,0.0,528597.0
1.0,14.2784423828125,18.046661376953125,-0.9982193112373352,-20.524085998535156,0.0,0.0,-0.0,-0.0,0.42242324352264404,0.8827491998672485,0.13610805571079254,3.113039970397949,0.0763000026345253,-7.568960189819336,0.0,528598.0
1.0,-25.996540069580078,-13.85603141784668,63.075443267822266,15.146867752075195,0.0,0.0,-0.0,-0.0,0.42242324352264404,0.8827491998672485,0.13610805571079254,3.113039970397949,0.0763000026345253,-7.568960189819336,0.0,528599.0
1.0,-57.43317794799805,-38.711814880371094,104.21290588378906,39.94567108154297,0.0,0.0,-0.0,-0.0,0.42242324352264404,0.8827491998672485,0.13610805571079254,3.113039970397949,0.0763000026345253,-7.568960189819336,0.0,528600.0
1.0,-59.84346389770508,-43.57892990112305,93.52943420410156,42.68639373779297,0.0,0.0,-0.0,-0.0,0.42242324352264404,0.8827491998672485,0.13610805571079254,3.113039970397949,0.0763000026345253,-7.568960189819336,0.0,528601.0
1.0,-28.725412368774414,-25.77682876586914,34.50661849975586,21.54017448425293,0.0,0.0,-0.0,-0.0,0.42486464977264404,0.8779274225234985,0.14007532596588135,15.565199851989746,0.4272800087928772,-6.302380084991455,0.0,528602.0
1.0,20.370410919189453,5.469025135040283,-40.8565673828125,-11.931982040405273,0.0,0.0,-0.0,-0.0,0.42486464977264404,0.8779274225234985,0.14007532596588135,15.565199851989746,0.4272800087928772,-6.302380084991455,0.0,528603.0
1.0,61.72064208984375,33.54121398925781,-92.25350189208984,-36.31435775756836,0.0,0.0,-0.0,-0.0,0.42486464977264404,0.8779274225234985,0.14007532596588135,15.565199851989746,0.4272800087928772,-6.302380084991455,0.0,528604.0
1.0,72.18193817138672,43.3359375,-93.83594512939453,-38.34123611450195,0.0,0.0,-0.0,-0.0,0.42486464977264404,0.8779274225234985,0.14007532596588135,15.565199851989746,0.4272800087928772,-6.302380084991455,0.0,528605.0
1.0,43.30402374267578,29.860450744628906,-50.74587631225586,-22.50111961364746,0.0,0.0,-0.0,-0.0,0.42486464977264404,0.8779274225234985,0.14007532596588135,15.565199851989746,0.4272800087928772,-6.302380084991455,0.0,528606.0
1.0,-12.297240257263184,0.7447910308837891,9.869367599487305,1.5703918933868408,0.0,0.0,-0.0,-0.0,0.42486464977264404,0.8779274225234985,0.14007532596588135,15.565199851989746,0.4272800087928772,-6.302380084991455,0.0,528607.0
1.0,-64.51435089111328,-28.162694931030273,58.38253402709961,25.960294723510742,0.0,0.0,-0.0,-0.0,0.42486464977264404,0.8779274225234985,0.14007532596588135,15.565199851989746,0.4272800087928772,-6.302380084991455,0.0,528608.0
1.0,-82.5016860961914,-41.168643951416016,71.4486083984375,38.80637741088867,0.0,0.0,-0.0,-0.0,0.42486464977264404,0.8779274225234985,0.14007532596588135,15.565199851989746,0.4272800087928772,-6.302380084991455,0.0,528609.0
1.0,-55.349952697753906,-31.357635498046875,40.84321212768555,28.379152297973633,0.0,0.0,-0.0,-0.0,0.42486464977264404,0.8779274225234985,0.14007532596588135,15.565199851989746,0.4272800087928772,-6.302380084991455,0.0,528610.0
1.0,0.9001575708389282,-4.266536235809326,-14.966425895690918,-3.9056060314178467,0.0,0.0,-0.0,-0.0,0.42486464977264404,0.8779274225234985,0.14007532596588135,15.565199851989746,0.4272800087928772,-6.302380084991455,0.0,528611.0
1.0,52.548057556152344,25.316354751586914,-56.865943908691406,-37.40192794799805,0.0,0.0,-0.0,-0.0,0.41906630992889404,0.8874489068984985,0.13525356352329254,20.43313980102539,-1.495479941368103,-5.722499847412109,0.0,528612.0
1.0,70.74750518798828,41.14101028442383,-55.99065399169922,-46.12394332885742,0.0,0.0,-0.0,-0.0,0.41906630992889404,0.8874489068984985,0.13525356352329254,20.43313980102539,-1.495479941368103,-5.722499847412109,0.0,528613.0
1.0,51.65253829956055,34.672813415527344,-17.485567092895508,-22.318248748779297,0.0,0.0,-0.0,-0.0,0.41906630992889404,0.8874489068984985,0.13525356352329254,20.43313980102539,-1.495479941368103,-5.722499847412109,0.0,528614.0
1.0,10.678125381469727,9.640429496765137,30.528385162353516,18.166799545288086,0.0,0.0,-0.0,-0.0,0.41906630992889404,0.8874489068984985,0.13525356352329254,20.43313980102539,-1.495479941368103,-5.722499847412109,0.0,528615.0
1.0,-32.37543869018555,-20.99630355834961,60.61686706542969,50.20502853393555,0.0,0.0,-0.0,-0.0,0.41906630992889404,0.8874489068984985,0.13525356352329254,20.43313980102539,-1.495479941368103,-5.722499847412109,0.0,528616.0
1.0,-56.81464385986328,-41.49407196044922,57.22210693359375,55.44972229003906,0.0,0.0,-0.0,0.0,0.41906630992889404,0.8874489068984985,0.13525356352329254,20.43313980102539,-1.495479941368103,-5.722499847412109,0.0,528617.0
1.0,-48.4594841003418,-40.6175651550293,22.906944274902344,31.24232292175293,0.0,0.0,-0.0,0.0,0.41906630992889404,0.8874489068984985,0.13525356352329254,20.43313980102539,-1.495479941368103,-5.722499847412109,0.0,528618.0
1.0,-12.5264253616333,-18.05170249938965,-20.624265670776367,-8.431873321533203,0.0,0.0,-0.0,0.0,0.41906630992889404,0.8874489068984985,0.13525356352329254,20.43313980102539,-1.495479941368103,-5.722499847412109,0.0,528619.0
1.0,27.421367645263672,14.445798873901367,-48.46291732788086,-42.689186096191406,0.0,0.0,-0.0,0.0,0.41906630992889404,0.8874489068984985,0.13525356352329254,20.43313980102539,-1.495479941368103,-5.722499847412109,0.0,528620.0
1.0,48.4505500793457,38.95775604248047,-50.19779968261719,-57.744850158691406,0.0,0.0,-0.0,0.0,0.41906630992889404,0.8874489068984985,0.13525356352329254,20.43313980102539,-1.495479941368103,-5.722499847412109,0.0,528621.0
1.0,45.49296188354492,41.948341369628906,-30.000457763671875,-49.88544845581055,0.0,0.0,-0.0,0.0,0.41894423961639404,0.9099097847938538,0.12365691363811493,15.595720291137695,-0.7477399706840515,-2.1669199466705322,0.0,528622.0
1.0,24.97804832458496,22.357519149780273,0.948901355266571,-21.7021484375,0.0,0.0,-0.0,0.0,0.41894423961639404,0.9099097847938538,0.12365691363811493,15.595720291137695,-0.7477399706840515,-2.1669199466705322,0.0,528623.0
1.0,-8.807835578918457,-8.613991737365723,28.921443939208984,17.01524543762207,0.0,0.0,-0.0,0.0,0.41894423961639404,0.9099097847938538,0.12365691363811493,15.595720291137695,-0.7477399706840515,-2.1669199466705322,0.0,528624.0
1.0,-45.506202697753906,-33.96019744873047,40.16697692871094,48.355445861816406,0.0,0.0,-0.0,0.0,0.41894423961639404,0.9099097847938538,0.12365691363811493,15.595720291137695,-0.7477399706840515,-2.1669199466705322,0.0,528625.0
1.0,-62.6069450378418,-39.919490814208984,26.2812557220459,54.44926452636719,0.0,0.0,-0.0,0.0,0.41894423961639404,0.9099097847938538,0.12365691363811493,15.595720291137695,-0.7477399706840515,-2.1669199466705322,0.0,528626.0
1.0,-45.779876708984375,-23.614933013916016,-5.797644138336182,30.851337432861328,0.0,0.0,-0.0,0.0,0.41894423961639404,0.9099097847938538,0.12365691363811493,15.595720291137695,-0.7477399706840515,-2.1669199466705322,0.0,528627.0
1.0,-4.4892072677612305,5.732587814331055,-34.67549133300781,-8.770225524902344,0.0,0.0,-0.0,0.0,0.41894423961639404,0.9099097847938538,0.12365691363811493,15.595720291137695,-0.7477399706840515,-2.1669199466705322,0.0,528628.0
1.0,37.24518966674805,31.934431076049805,-41.14602279663086,-40.597103118896484,0.0,0.0,-0.0,0.0,0.41894423961639404,0.9099097847938538,0.12365691363811493,15.595720291137695,-0.7477399706840515,-2.1669199466705322,0.0,528629.0
1.0,56.95752716064453,40.48737716674805,-21.468730926513672,-45.61102294921875,0.0,0.0,-0.0,0.0,0.41894423961639404,0.9099097847938538,0.12365691363811493,15.595720291137695,-0.7477399706840515,-2.1669199466705322,0.0,528630.0
1.0,45.40720748901367,26.78691291809082,12.461901664733887,-22.086105346679688,0.0,0.0,-0.0,0.0,0.41894423961639404,0.9099097847938538,0.12365691363811493,15.595720291137695,-0.7477399706840515,-2.1669199466705322,0.0,528631.0
1.0,11.447978973388672,-1.6792281866073608,41.332733154296875,14.725144386291504,0.0,0.0,-0.0,0.0,0.42138564586639404,0.928891658782959,0.11413545161485672,-0.6561800241470337,0.6714400053024292,2.1516599655151367,0.0,528632.0
1.0,-24.439435958862305,-29.82499122619629,48.98531723022461,43.859130859375,0.0,0.0,-0.0,0.0,0.42138564586639404,0.928891658782959,0.11413545161485672,-0.6561800241470337,0.6714400053024292,2.1516599655151367,0.0,528633.0
1.0,-41.83841323852539,-42.590423583984375,31.371850967407227,50.01873779296875,0.0,0.0,-0.0,0.0,0.42138564586639404,0.928891658782959,0.11413545161485672,-0.6561800241470337,0.6714400053024292,2.1516599655151367,0.0,528634.0
1.0,-31.092073440551758,-32.709693908691406,-1.7255542278289795,29.30329132080078,0.0,0.0,-0.0,0.0,0.42138564586639404,0.928891658782959,0.11413545161485672,-0.6561800241470337,0.6714400053024292,2.1516599655151367,0.0,528635.0
1.0,-0.5012369155883789,-4.954251289367676,-33.510292053222656,-9.174237251281738,0.0,0.0,-0.0,0.0,0.42138564586639404,0.928891658782959,0.11413545161485672,-0.6561800241470337,0.6714400053024292,2.1516599655151367,0.0,528636.0
1.0,28.664234161376953,25.914627075195312,-47.32085037231445,-44.84804153442383,0.0,0.0,-0.0,0.0,0.42138564586639404,0.928891658782959,0.11413545161485672,-0.6561800241470337,0.6714400053024292,2.1516599655151367,0.0,528637.0
1.0,37.11114501953125,42.948036193847656,-35.554840087890625,-55.82208251953125,0.0,0.0,-0.0,0.0,0.42138564586639404,0.928891658782959,0.11413545161485672,-0.6561800241470337,0.6714400053024292,2.1516599655151367,0.0,528638.0
1.0,20.339929580688477,36.83807373046875,-7.21220064163208,-35.7884635925293,0.0,0.0,-0.0,0.0,0.42138564586639404,0.928891658782959,0.11413545161485672,-0.6561800241470337,0.6714400053024292,2.1516599655151367,0.0,528639.0
1.0,-7.705456733703613,11.173418998718262,21.03917121887207,0.3149530589580536,0.0,0.0,-0.0,0.0,0.42138564586639404,0.928891658782959,0.11413545161485672,-0.6561800241470337,0.6714400053024292,2.1516599655151367,0.0,528640.0
1.0,-27.652673721313477,-20.124858856201172,38.96160125732422,30.575271606445312,0.0,0.0,-0.0,0.0,0.42138564586639404,0.928891658782959,0.11413545161485672,-0.6561800241470337,0.6714400053024292,2.1516599655151367,0.0,528641.0
1.0,-32.05340576171875,-40.339752197265625,41.89362716674805,41.79768371582031,0.0,0.0,-0.0,0.0,0.41595351696014404,0.921933650970459,0.12322966754436493,-9.888480186462402,-0.5951399803161621,-1.6023000478744507,0.0,528642.0
1.0,-22.536306381225586,-38.80352783203125,24.08038902282715,31.140295028686523,0.0,0.0,-0.0,0.0,0.41595351696014404,0.921933650970459,0.12322966754436493,-9.888480186462402,-0.5951399803161621,-1.6023000478744507,0.0,528643.0
1.0,-1.3476808071136475,-16.430681228637695,-14.542928695678711,3.465827465057373,0.0,0.0,-0.0,0.0,0.41595351696014404,0.921933650970459,0.12322966754436493,-9.888480186462402,-0.5951399803161621,-1.6023000478744507,0.0,528644.0
1.0,23.815011978149414,15.126736640930176,-55.28036117553711,-27.92633056640625,0.0,0.0,-0.0,0.0,0.41595351696014404,0.921933650970459,0.12322966754436493,-9.888480186462402,-0.5951399803161621,-1.6023000478744507,0.0,528645.0
1.0,37.32017135620117,38.91388702392578,-68.61978912353516,-44.253292083740234,0.0,0.0,-0.0,0.0,0.41595351696014404,0.921933650970459,0.12322966754436493,-9.888480186462402,-0.5951399803161621,-1.6023000478744507,0.0,528646.0
1.0,28.009416580200195,41.52019119262695,-41.44711685180664,-32.362060546875,0.0,0.0,-0.0,0.0,0.41595351696014404,0.921933650970459,0.12322966754436493,-9.888480186462402,-0.5951399803161621,-1.6023000478744507,0.0,528647.0
1.0,0.9548567533493042,21.370922088623047,11.912348747253418,3.804335355758667,0.0,0.0,-0.0,0.0,0.41595351696014404,0.921933650970459,0.12322966754436493,-9.888480186462402,-0.5951399803161621,-1.6023000478744507,0.0,528648.0
1.0,-29.267404556274414,-10.615229606628418,63.30118179321289,43.981658935546875,0.0,0.0,-0.0,0.0,0.41595351696014404,0.921933650970459,0.12322966754436493,-9.888480186462402,-0.5951399803161621,-1.6023000478744507,0.0,528649.0
1.0,-46.52017593383789,-37.378562927246094,84.62432861328125,62.66221237182617,0.0,0.0,-0.0,0.0,0.41595351696014404,0.921933650970459,0.12322966754436493,-9.888480186462402,-0.5951399803161621,-1.6023000478744507,0.0,528650.0
1.0,-36.8120231628418,-44.51057434082031,60.64717102050781,44.747802734375,0.0,0.0,-0.0,0.0,0.41595351696014404,0.921933650970459,0.12322966754436493,-9.888480186462402,-0.5951399803161621,-1.6023000478744507,0.0,528651.0
1.0,-2.271188259124756,-28.13711166381836,2.788557767868042,-1.0670279264450073,0.0,0.0,-0.0,0.0,0.41540420055389404,0.8954445123672485,0.13592495024204254,3.662400007247925,-1.6175600290298462,-0.9003400206565857,0.0,528652.0
1.0,35.84428405761719,2.85556960105896,-55.81666946411133,-47.63584518432617,0.0,0.0,-0.0,0.0,0.41540420055389404,0.8954445123672485,0.13592495024204254,3.662400007247925,-1.6175600290298462,-0.9003400206565857,0.0,528653.0
1.0,54.92101287841797,31.921823501586914,-82.49983978271484,-69.6822738647461,0.0,0.0,-0.0,0.0,0.41540420055389404,0.8954445123672485,0.13592495024204254,3.662400007247925,-1.6175600290298462,-0.9003400206565857,0.0,528654.0
1.0,46.727294921875,43.959102630615234,-64.95838165283203,-58.5332145690918,0.0,0.0,-0.0,0.0,0.41540420055389404,0.8954445123672485,0.13592495024204254,3.662400007247925,-1.6175600290298462,-0.9003400206565857,0.0,528655.0
1.0,17.676471710205078,33.083099365234375,-16.15732765197754,-21.600399017333984,0.0,0.0,-0.0,0.0,0.41540420055389404,0.8954445123672485,0.13592495024204254,3.662400007247925,-1.6175600290298462,-0.9003400206565857,0.0,528656.0
1.0,-21.886812210083008,4.997185230255127,38.15180206298828,26.555513381958008,0.0,0.0,-0.0,0.0,0.41540420055389404,0.8954445123672485,0.13592495024204254,3.662400007247925,-1.6175600290298462,-0.9003400206565857,0.0,528657.0
1.0,-58.30191421508789,-25.704423904418945,73.19136810302734,66.36557006835938,0.0,0.0,-0.0,0.0,0.41540420055389404,0.8954445123672485,0.13592495024204254,3.662400007247925,-1.6175600290298462,-0.9003400206565857,0.0,528658.0
1.0,-69.88227844238281,-42.3776741027832,71.04788208007812,74.9861831665039,0.0,0.0,-0.0,0.0,0.41540420055389404,0.8954445123672485,0.13592495024204254,3.662400007247925,-1.6175600290298462,-0.9003400206565857,0.0,528659.0
1.0,-43.82673263549805,-35.8497314453125,28.92456817626953,43.21172332763672,0.0,0.0,-0.0,0.0,0.41540420055389404,0.8954445123672485,0.13592495024204254,3.662400007247925,-1.6175600290298462,-0.9003400206565857,0.0,528660.0
1.0,7.76828145980835,-9.989008903503418,-33.534481048583984,-11.612780570983887,0.0,0.0,-0.0,0.0,0.41540420055389404,0.8954445123672485,0.13592495024204254,3.662400007247925,-1.6175600290298462,-0.9003400206565857,0.0,528661.0
1.0,57.44734191894531,20.814899444580078,-80.96125030517578,-59.112003326416016,0.0,0.0,-0.0,0.0,0.41900527477264404,0.8798805475234985,0.13311733305454254,20.219499588012695,-0.2136400043964386,0.8545600175857544,0.0,528662.0
1.0,78.11030578613281,39.649864196777344,-81.94540405273438,-76.48128509521484,0.0,0.0,-0.0,0.0,0.41900527477264404,0.8798805475234985,0.13311733305454254,20.219499588012695,-0.2136400043964386,0.8545600175857544,0.0,528663.0
1.0,56.887611389160156,36.69253158569336,-31.82771873474121,-55.62242126464844,0.0,0.0,-0.0,0.0,0.41900527477264404,0.8798805475234985,0.13311733305454254,20.219499588012695,-0.2136400043964386,0.8545600175857544,0.0,528664.0
1.0,5.203247547149658,14.453396797180176,38.89105987548828,-5.668957710266113,0.0,0.0,-0.0,0.0,0.41900527477264404,0.8798805475234985,0.13311733305454254,20.219499588012695,-0.2136400043964386,0.8545600175857544,0.0,528665.0
1.0,-47.97306823730469,-14.83297061920166,85.02947998046875,47.20024871826172,0.0,0.0,-0.0,0.0,0.41900527477264404,0.8798805475234985,0.13311733305454254,20.219499588012695,-0.2136400043964386,0.8545600175857544,0.0,528666.0
1.0,-75.18678283691406,-35.73276901245117,80.27827453613281,73.12755584716797,0.0,0.0,-0.0,0.0,0.41900527477264404,0.8798805475234985,0.13311733305454254,20.219499588012695,-0.2136400043964386,0.8545600175857544,0.0,528667.0
1.0,-64.47184753417969,-36.949119567871094,32.53358840942383,58.523189544677734,0.0,0.0,-0.0,0.0,0.41900527477264404,0.8798805475234985,0.13311733305454254,20.219499588012695,-0.2136400043964386,0.8545600175857544,0.0,528668.0
1.0,-21.61884307861328,-17.565372467041016,-27.85944366455078,13.731986045837402,0.0,0.0,-0.0,0.0,0.41900527477264404,0.8798805475234985,0.13311733305454254,20.219499588012695,-0.2136400043964386,0.8545600175857544,0.0,528669.0
1.0,33.69528579711914,11.847840309143066,-70.28758239746094,-35.27364730834961,0.0,0.0,0.0,0.0,0.41900527477264404,0.8798805475234985,0.13311733305454254,20.219499588012695,-0.2136400043964386,0.8545600175857544,0.0,528670.0
1.0,73.71648406982422,34.60673904418945,-77.76251220703125,-61.64902877807617,0.0,0.0,0.0,0.0,0.41900527477264404,0.8798805475234985,0.13311733305454254,20.219499588012695,-0.2136400043964386,0.8545600175857544,0.0,528671.0
1.0,75.47222900390625,37.666481018066406,-48.5419921875,-53.00807571411133,0.0,0.0,0.0,0.0,0.41680800914764404,0.8906837701797485,0.12884488701820374,18.02206039428711,-2.9756999015808105,-1.6480799913406372,0.0,528672.0
1.0,37.472434997558594,19.549108505249023,5.942227363586426,-17.539329528808594,0.0,0.0,0.0,0.0,0.41680800914764404,0.8906837701797485,0.12884488701820374,18.02206039428711,-2.9756999015808105,-1.6480799913406372,0.0,528673.0
1.0,-18.275564193725586,-9.561363220214844,62.03121566772461,24.622385025024414,0.0,0.0,0.0,0.0,0.41680800914764404,0.8906837701797485,0.12884488701820374,18.02206039428711,-2.9756999015808105,-1.6480799913406372,0.0,528674.0
1.0,-62.26487731933594,-33.745460510253906,90.38506317138672,52.76661682128906,0.0,0.0,0.0,0.0,0.41680800914764404,0.8906837701797485,0.12884488701820374,18.02206039428711,-2.9756999015808105,-1.6480799913406372,0.0,528675.0
1.0,-72.95361328125,-39.5813102722168,71.40967559814453,52.58208465576172,0.0,0.0,0.0,0.0,0.41680800914764404,0.8906837701797485,0.12884488701820374,18.02206039428711,-2.9756999015808105,-1.6480799913406372,0.0,528676.0
1.0,-44.71986389160156,-23.597537994384766,10.359679222106934,22.90414810180664,0.0,0.0,0.0,0.0,0.41680800914764404,0.8906837701797485,0.12884488701820374,18.02206039428711,-2.9756999015808105,-1.6480799913406372,0.0,528677.0
1.0,7.21211051940918,5.7789459228515625,-60.8188362121582,-20.81170654296875,0.0,0.0,0.0,0.0,0.41680800914764404,0.8906837701797485,0.12884488701820374,18.02206039428711,-2.9756999015808105,-1.6480799913406372,0.0,528678.0
1.0,52.54208755493164,32.61863708496094,-100.8695068359375,-53.2991943359375,0.0,0.0,0.0,0.0,0.41680800914764404,0.8906837701797485,0.12884488701820374,18.02206039428711,-2.9756999015808105,-1.6480799913406372,0.0,528679.0
1.0,64.2004165649414,41.947906494140625,-86.24906158447266,-54.44071578979492,0.0,0.0,0.0,0.0,0.41680800914764404,0.8906837701797485,0.12884488701820374,18.02206039428711,-2.9756999015808105,-1.6480799913406372,0.0,528680.0
1.0,35.660491943359375,28.44686508178711,-25.916034698486328,-22.34021759033203,0.0,0.0,0.0,0.0,0.41680800914764404,0.8906837701797485,0.12884488701820374,18.02206039428711,-2.9756999015808105,-1.6480799913406372,0.0,528681.0
1.0,-14.088424682617188,-0.6806750893592834,46.047874450683594,25.297574996948242,0.0,0.0,0.0,0.0,0.41485488414764404,0.8963600397109985,0.12676969170570374,12.497940063476562,-3.9523398876190186,-4.7763800621032715,0.0,528682.0
1.0,-52.99802780151367,-29.955482482910156,90.32122802734375,61.86573791503906,0.0,0.0,0.0,0.0,0.41485488414764404,0.8963600397109985,0.12676969170570374,12.497940063476562,-3.9523398876190186,-4.7763800621032715,0.0,528683.0
1.0,-56.9488639831543,-43.45683670043945,84.85501861572266,64.43036651611328,0.0,0.0,0.0,0.0,0.41485488414764404,0.8963600397109985,0.12676969170570374,12.497940063476562,-3.9523398876190186,-4.7763800621032715,0.0,528684.0
1.0,-25.184885025024414,-33.40570831298828,38.714759826660156,25.19078826904297,0.0,0.0,0.0,0.0,0.41485488414764404,0.8963600397109985,0.12676969170570374,12.497940063476562,-3.9523398876190186,-4.7763800621032715,0.0,528685.0
1.0,18.56800079345703,-5.15162467956543,-17.353565216064453,-36.3555793762207,0.0,0.0,0.0,0.0,0.41485488414764404,0.8963600397109985,0.12676969170570374,12.497940063476562,-3.9523398876190186,-4.7763800621032715,0.0,528686.0
1.0,46.7025260925293,25.65915298461914,-56.32463073730469,-80.12754821777344,0.0,0.0,0.0,0.0,0.41485488414764404,0.8963600397109985,0.12676969170570374,12.497940063476562,-3.9523398876190186,-4.7763800621032715,0.0,528687.0
1.0,49.829593658447266,42.149375915527344,-68.28858947753906,-77.51362609863281,0.0,0.0,0.0,0.0,0.41485488414764404,0.8963600397109985,0.12676969170570374,12.497940063476562,-3.9523398876190186,-4.7763800621032715,0.0,528688.0
1.0,32.89430618286133,35.77819061279297,-53.117435455322266,-32.54308319091797,0.0,0.0,0.0,0.0,0.41485488414764404,0.8963600397109985,0.12676969170570374,12.497940063476562,-3.9523398876190186,-4.7763800621032715,0.0,528689.0
1.0,2.6354269981384277,10.529073715209961,-14.244858741760254,27.783117294311523,0.0,0.0,0.0,0.0,0.41485488414764404,0.8963600397109985,0.12676969170570374,12.497940063476562,-3.9523398876190186,-4.7763800621032715,0.0,528690.0
1.0,-30.88869285583496,-20.11333656311035,33.59173583984375,73.20415496826172,0.0,0.0,0.0,0.0,0.41485488414764404,0.8963600397109985,0.12676969170570374,12.497940063476562,-3.9523398876190186,-4.7763800621032715,0.0,528691.0
1.0,-52.01895523071289,-40.18342971801758,63.20252990722656,82.93113708496094,0.0,0.0,0.0,0.0,0.42315566539764404,0.8998389840126038,0.11688202619552612,12.528459548950195,-0.9156000018119812,-0.7935199737548828,0.0,528692.0
1.0,-46.900699615478516,-39.02150344848633,54.551761627197266,52.90674591064453,0.0,0.0,0.0,0.0,0.42315566539764404,0.8998389840126038,0.11688202619552612,12.528459548950195,-0.9156000018119812,-0.7935199737548828,0.0,528693.0
1.0,-14.22314167022705,-16.80305290222168,13.12428092956543,-1.7117747068405151,0.0,0.0,0.0,0.0,0.42315566539764404,0.8998389840126038,0.11688202619552612,12.528459548950195,-0.9156000018119812,-0.7935199737548828,0.0,528694.0
1.0,27.1573429107666,15.15599536895752,-33.412513732910156,-53.00508117675781,0.0,0.0,0.0,0.0,0.42315566539764404,0.8998389840126038,0.11688202619552612,12.528459548950195,-0.9156000018119812,-0.7935199737548828,0.0,528695.0
1.0,48.79811477661133,39.614952087402344,-55.074989318847656,-75.14186096191406,0.0,0.0,0.0,0.0,0.42315566539764404,0.8998389840126038,0.11688202619552612,12.528459548950195,-0.9156000018119812,-0.7935199737548828,0.0,528696.0
1.0,38.0555305480957,42.84469985961914,-40.16434860229492,-58.571388244628906,0.0,0.0,0.0,0.0,0.42315566539764404,0.8998389840126038,0.11688202619552612,12.528459548950195,-0.9156000018119812,-0.7935199737548828,0.0,528697.0
1.0,6.075368881225586,23.06508445739746,0.1867663413286209,-13.382699966430664,0.0,0.0,0.0,0.0,0.42315566539764404,0.8998389840126038,0.11688202619552612,12.528459548950195,-0.9156000018119812,-0.7935199737548828,0.0,528698.0
1.0,-26.850608825683594,-8.842833518981934,42.74455642700195,37.590694427490234,0.0,0.0,0.0,-0.0,0.42315566539764404,0.8998389840126038,0.11688202619552612,12.528459548950195,-0.9156000018119812,-0.7935199737548828,0.0,528699.0
1.0,-43.958988189697266,-35.82069778442383,62.575096130371094,68.0086898803711,0.0,0.0,0.0,-0.0,0.42315566539764404,0.8998389840126038,0.11688202619552612,12.528459548950195,-0.9156000018119812,-0.7935199737548828,0.0,528700.0
1.0,-36.37833786010742,-43.62554931640625,43.75419235229492,59.55274200439453,0.0,0.0,0.0,-0.0,0.42315566539764404,0.8998389840126038,0.11688202619552612,12.528459548950195,-0.9156000018119812,-0.7935199737548828,0.0,528701.0
1.0,-6.130236625671387,-28.244033813476562,-7.6235480308532715,14.362638473510742,0.0,0.0,0.0,-0.0,0.42632946372032166,0.9165626168251038,0.11383027583360672,-1.999060034751892,-0.244159996509552,-0.3204599916934967,0.0,528702.0
1.0,32.60783386230469,2.043057680130005,-61.80020523071289,-42.639793395996094,0.0,0.0,0.0,-0.0,0.42632946372032166,0.9165626168251038,0.11383027583360672,-1.999060034751892,-0.244159996509552,-0.3204599916934967,0.0,528703.0
1.0,56.97373962402344,30.8945255279541,-83.45872497558594,-76.39502716064453,0.0,0.0,0.0,-0.0,0.42632946372032166,0.9165626168251038,0.11383027583360672,-1.999060034751892,-0.244159996509552,-0.3204599916934967,0.0,528704.0
1.0,49.67903518676758,42.77932357788086,-58.43185806274414,-65.22001647949219,0.0,0.0,0.0,-0.0,0.42632946372032166,0.9165626168251038,0.11383027583360672,-1.999060034751892,-0.244159996509552,-0.3204599916934967,0.0,528705.0
1.0,14.119147300720215,31.714237213134766,-2.9655728340148926,-17.0672607421875,0.0,0.0,0.0,-0.0,0.42632946372032166,0.9165626168251038,0.11383027583360672,-1.999060034751892,-0.244159996509552,-0.3204599916934967,0.0,528706.0
1.0,-29.30188751220703,3.8615365028381348,51.99283981323242,39.15214157104492,0.0,0.0,0.0,-0.0,0.42632946372032166,0.9165626168251038,0.11383027583360672,-1.999060034751892,-0.244159996509552,-0.3204599916934967,0.0,528707.0
1.0,-58.35615158081055,-26.168947219848633,80.686767578125,74.10257720947266,0.0,0.0,0.0,-0.0,0.42632946372032166,0.9165626168251038,0.11383027583360672,-1.999060034751892,-0.244159996509552,-0.3204599916934967,0.0,528708.0
1.0,-59.54130935668945,-42.36693572998047,72.02236938476562,71.88428497314453,0.0,0.0,0.0,-0.0,0.42632946372032166,0.9165626168251038,0.11383027583360672,-1.999060034751892,-0.244159996509552,-0.3204599916934967,0.0,528709.0
1.0,-32.70369338989258,-35.779273986816406,31.802791595458984,36.588478088378906,0.0,0.0,0.0,-0.0,0.42632946372032166,0.9165626168251038,0.11383027583360672,-1.999060034751892,-0.244159996509552,-0.3204599916934967,0.0,528710.0
1.0,9.254104614257812,-9.834131240844727,-18.95583724975586,-10.722434997558594,0.0,0.0,0.0,-0.0,0.42632946372032166,0.9165626168251038,0.11383027583360672,-1.999060034751892,-0.244159996509552,-0.3204599916934967,0.0,528711.0
1.0,46.59796142578125,21.264999389648438,-56.25698471069336,-47.12815856933594,0.0,0.0,0.0,-0.0,0.41747939586639404,0.9083839058876038,0.12213103473186493,-7.614739894866943,-1.5717799663543701,-5.402040004730225,0.0,528712.0
1.0,62.81485366821289,40.20943069458008,-67.64350128173828,-60.954673767089844,0.0,0.0,0.0,-0.0,0.41747939586639404,0.9083839058876038,0.12213103473186493,-7.614739894866943,-1.5717799663543701,-5.402040004730225,0.0,528713.0
1.0,50.79533004760742,36.71027755737305,-50.347782135009766,-50.66790008544922,0.0,0.0,0.0,-0.0,0.41747939586639404,0.9083839058876038,0.12213103473186493,-7.614739894866943,-1.5717799663543701,-5.402040004730225,0.0,528714.0
1.0,13.271321296691895,13.30047607421875,-8.102469444274902,-20.50634765625,0.0,0.0,0.0,-0.0,0.41747939586639404,0.9083839058876038,0.12213103473186493,-7.614739894866943,-1.5717799663543701,-5.402040004730225,0.0,528715.0
1.0,-34.0838623046875,-16.926820755004883,40.06422805786133,17.1214542388916,0.0,0.0,0.0,-0.0,0.41747939586639404,0.9083839058876038,0.12213103473186493,-7.614739894866943,-1.5717799663543701,-5.402040004730225,0.0,528716.0
1.0,-65.25650787353516,-37.46807861328125,64.36909484863281,42.45970153808594,0.0,0.0,0.0,-0.0,0.41747939586639404,0.9083839058876038,0.12213103473186493,-7.614739894866943,-1.5717799663543701,-5.402040004730225,0.0,528717.0
1.0,-61.83563995361328,-37.06984329223633,48.611289978027344,40.83091735839844,0.0,0.0,0.0,-0.0,0.41747939586639404,0.9083839058876038,0.12213103473186493,-7.614739894866943,-1.5717799663543701,-5.402040004730225,0.0,528718.0
1.0,-26.987043380737305,-15.891983032226562,4.242173671722412,15.162115097045898,0.0,0.0,0.0,-0.0,0.41747939586639404,0.9083839058876038,0.12213103473186493,-7.614739894866943,-1.5717799663543701,-5.402040004730225,0.0,528719.0
1.0,18.523296356201172,14.682429313659668,-39.30694580078125,-15.203238487243652,0.0,0.0,0.0,-0.0,0.41747939586639404,0.9083839058876038,0.12213103473186493,-7.614739894866943,-1.5717799663543701,-5.402040004730225,0.0,528720.0
1.0,51.355106353759766,37.895633697509766,-55.53588104248047,-28.520721435546875,0.0,0.0,0.0,-0.0,0.41747939586639404,0.9083839058876038,0.12213103473186493,-7.614739894866943,-1.5717799663543701,-5.402040004730225,0.0,528721.0
1.0,59.14457321166992,40.73877716064453,-38.364112854003906,-17.670488357543945,0.0,0.0,0.0,-0.0,0.41448867321014404,0.8828712701797485,0.12957730889320374,11.582340240478516,-3.8302600383758545,-4.54748010635376,0.0,528722.0
1.0,41.08024215698242,21.480623245239258,-2.9324121475219727,6.171867370605469,0.0,0.0,0.0,-0.0,0.41448867321014404,0.8828712701797485,0.12957730889320374,11.582340240478516,-3.8302600383758545,-4.54748010635376,0.0,528723.0
1.0,3.646411180496216,-9.584022521972656,29.392314910888672,26.108200073242188,0.0,0.0,0.0,-0.0,0.41448867321014404,0.8828712701797485,0.12957730889320374,11.582340240478516,-3.8302600383758545,-4.54748010635376,0.0,528724.0
1.0,-37.17277526855469,-35.69121170043945,42.89753723144531,30.134531021118164,0.0,0.0,0.0,-0.0,0.41448867321014404,0.8828712701797485,0.12957730889320374,11.582340240478516,-3.8302600383758545,-4.54748010635376,0.0,528725.0
1.0,-58.814918518066406,-42.6447639465332,32.58633804321289,14.93645191192627,0.0,0.0,0.0,-0.0,0.41448867321014404,0.8828712701797485,0.12957730889320374,11.582340240478516,-3.8302600383758545,-4.54748010635376,0.0,528726.0
1.0,-46.605838775634766,-26.860803604125977,6.784337043762207,-12.109075546264648,0.0,0.0,0.0,-0.0,0.41448867321014404,0.8828712701797485,0.12957730889320374,11.582340240478516,-3.8302600383758545,-4.54748010635376,0.0,528727.0
1.0,-6.450633525848389,2.874150514602661,-20.505367279052734,-36.81787109375,0.0,0.0,0.0,-0.0,0.41448867321014404,0.8828712701797485,0.12957730889320374,11.582340240478516,-3.8302600383758545,-4.54748010635376,0.0,528728.0
1.0,36.1971549987793,30.36326789855957,-37.65937805175781,-45.29108428955078,0.0,0.0,0.0,-0.0,0.41448867321014404,0.8828712701797485,0.12957730889320374,11.582340240478516,-3.8302600383758545,-4.54748010635376,0.0,528729.0
1.0,54.23179244995117,40.88694381713867,-35.36159133911133,-30.14467430114746,0.0,0.0,0.0,-0.0,0.41448867321014404,0.8828712701797485,0.12957730889320374,11.582340240478516,-3.8302600383758545,-4.54748010635376,0.0,528730.0
1.0,39.864776611328125,29.335474014282227,-10.823380470275879,3.4473307132720947,0.0,0.0,0.0,-0.0,0.41448867321014404,0.8828712701797485,0.12957730889320374,11.582340240478516,-3.8302600383758545,-4.54748010635376,0.0,528731.0
1.0,4.82748556137085,2.221578359603882,27.066333770751953,39.33930969238281,0.0,0.0,0.0,-0.0,0.41955459117889404,0.8828102350234985,0.12768521904945374,24.065019607543945,-3.2961599826812744,-2.304260015487671,0.0,528732.0
1.0,-32.954612731933594,-26.20098876953125,59.35469436645508,60.238609313964844,0.0,0.0,0.0,-0.0,0.41955459117889404,0.8828102350234985,0.12768521904945374,24.065019607543945,-3.2961599826812744,-2.304260015487671,0.0,528733.0
1.0,-54.670631408691406,-40.62579345703125,63.89926528930664,55.23287582397461,0.0,0.0,0.0,-0.0,0.41955459117889404,0.8828102350234985,0.12768521904945374,24.065019607543945,-3.2961599826812744,-2.304260015487671,0.0,528734.0
1.0,-45.5261344909668,-32.7065315246582,29.728158950805664,22.839284896850586,0.0,0.0,0.0,-0.0,0.41955459117889404,0.8828102350234985,0.12768521904945374,24.065019607543945,-3.2961599826812744,-2.304260015487671,0.0,528735.0
1.0,-6.177130699157715,-6.42409086227417,-30.591440200805664,-26.93164825439453,0.0,0.0,0.0,-0.0,0.41955459117889404,0.8828102350234985,0.12768521904945374,24.065019607543945,-3.2961599826812744,-2.304260015487671,0.0,528736.0
1.0,41.922569274902344,23.60677719116211,-84.8801040649414,-71.81050872802734,0.0,0.0,0.0,-0.0,0.41955459117889404,0.8828102350234985,0.12768521904945374,24.065019607543945,-3.2961599826812744,-2.304260015487671,0.0,528737.0
1.0,66.80931854248047,40.46337890625,-99.13094329833984,-84.56990051269531,0.0,0.0,0.0,-0.0,0.41955459117889404,0.8828102350234985,0.12768521904945374,24.065019607543945,-3.2961599826812744,-2.304260015487671,0.0,528738.0
1.0,49.376487731933594,34.99579620361328,-59.94544982910156,-52.42335510253906,0.0,0.0,0.0,-0.0,0.41955459117889404,0.8828102350234985,0.12768521904945374,24.065019607543945,-3.2961599826812744,-2.304260015487671,0.0,528739.0
1.0,0.2724524736404419,10.614418029785156,12.786803245544434,8.703532218933105,0.0,0.0,0.0,-0.0,0.41955459117889404,0.8828102350234985,0.12768521904945374,24.065019607543945,-3.2961599826812744,-2.304260015487671,0.0,528740.0
1.0,-48.99217987060547,-19.558618545532227,78.41130065917969,64.6362075805664,0.0,0.0,0.0,-0.0,0.41955459117889404,0.8828102350234985,0.12768521904945374,24.065019607543945,-3.2961599826812744,-2.304260015487671,0.0,528741.0
1.0,-69.83336639404297,-39.494327545166016,102.57809448242188,86.85820007324219,0.0,0.0,0.0,-0.0,0.41815078258514404,0.9035621285438538,0.11828582733869553,15.778840065002441,-2.487380027770996,-1.815940022468567,0.0,528742.0
1.0,-51.96773910522461,-38.27169418334961,73.89134216308594,66.41263580322266,0.0,0.0,0.0,-0.0,0.41815078258514404,0.9035621285438538,0.11828582733869553,15.778840065002441,-2.487380027770996,-1.815940022468567,0.0,528743.0
1.0,-5.4464802742004395,-15.992324829101562,7.108400821685791,14.45795726776123,0.0,0.0,0.0,-0.0,0.41815078258514404,0.9035621285438538,0.11828582733869553,15.778840065002441,-2.487380027770996,-1.815940022468567,0.0,528744.0
1.0,44.406768798828125,16.069364547729492,-60.63685989379883,-42.79684829711914,0.0,0.0,0.0,-0.0,0.41815078258514404,0.9035621285438538,0.11828582733869553,15.778840065002441,-2.487380027770996,-1.815940022468567,0.0,528745.0
1.0,69.45349884033203,40.66835403442383,-89.3652114868164,-75.38160705566406,0.0,0.0,0.0,-0.0,0.41815078258514404,0.9035621285438538,0.11828582733869553,15.778840065002441,-2.487380027770996,-1.815940022468567,0.0,528746.0
1.0,56.858558654785156,43.7191162109375,-66.07665252685547,-67.07173919677734,0.0,0.0,0.0,-0.0,0.41815078258514404,0.9035621285438538,0.11828582733869553,15.778840065002441,-2.487380027770996,-1.815940022468567,0.0,528747.0
1.0,16.183473587036133,22.973630905151367,-10.251008033752441,-25.261571884155273,0.0,0.0,0.0,-0.0,0.41815078258514404,0.9035621285438538,0.11828582733869553,15.778840065002441,-2.487380027770996,-1.815940022468567,0.0,528748.0
1.0,-29.99738311767578,-10.524388313293457,47.150699615478516,26.050098419189453,0.0,0.0,0.0,-0.0,0.41815078258514404,0.9035621285438538,0.11828582733869553,15.778840065002441,-2.487380027770996,-1.815940022468567,0.0,528749.0
1.0,-59.430973052978516,-38.76775360107422,78.85285186767578,60.691410064697266,0.0,0.0,0.0,-0.0,0.41815078258514404,0.9035621285438538,0.11828582733869553,15.778840065002441,-2.487380027770996,-1.815940022468567,0.0,528750.0
1.0,-59.7707633972168,-46.66810989379883,69.9018783569336,62.275875091552734,0.0,0.0,0.0,-0.0,0.41815078258514404,0.9035621285438538,0.11828582733869553,15.778840065002441,-2.487380027770996,-1.815940022468567,0.0,528751.0
1.0,-31.899995803833008,-30.24918556213379,26.413026809692383,31.74730110168457,0.0,0.0,-0.0,-0.0,0.41686904430389404,0.9153419137001038,0.11199922859668732,5.188399791717529,-2.685760021209717,-2.517899990081787,0.0,528752.0
1.0,11.312054634094238,1.521584153175354,-28.31033706665039,-12.42365837097168,0.0,0.0,-0.0,-0.0,0.41686904430389404,0.9153419137001038,0.11199922859668732,5.188399791717529,-2.685760021209717,-2.517899990081787,0.0,528753.0
1.0,49.11680221557617,31.62451934814453,-66.99543762207031,-44.14400100708008,0.0,0.0,-0.0,-0.0,0.41686904430389404,0.9153419137001038,0.11199922859668732,5.188399791717529,-2.685760021209717,-2.517899990081787,0.0,528754.0
1.0,62.37026596069336,44.11725997924805,-71.61237335205078,-47.222408294677734,0.0,0.0,-0.0,-0.0,0.41686904430389404,0.9153419137001038,0.11199922859668732,5.188399791717529,-2.685760021209717,-2.517899990081787,0.0,528755.0
1.0,43.57742691040039,32.90637969970703,-42.513450622558594,-26.322229385375977,0.0,0.0,-0.0,-0.0,0.41686904430389404,0.9153419137001038,0.11199922859668732,5.188399791717529,-2.685760021209717,-2.517899990081787,0.0,528756.0
1.0,0.7735410332679749,4.533892631530762,4.042820930480957,2.2223892211914062,0.0,0.0,-0.0,-0.0,0.41686904430389404,0.9153419137001038,0.11199922859668732,5.188399791717529,-2.685760021209717,-2.517899990081787,0.0,528757.0
1.0,-43.53539276123047,-25.672359466552734,44.998878479003906,24.85260581970215,0.0,0.0,-0.0,-0.0,0.41686904430389404,0.9153419137001038,0.11199922859668732,5.188399791717529,-2.685760021209717,-2.517899990081787,0.0,528758.0
1.0,-62.78532028198242,-41.37395095825195,59.28581619262695,32.847862243652344,0.0,0.0,-0.0,-0.0,0.41686904430389404,0.9153419137001038,0.11199922859668732,5.188399791717529,-2.685760021209717,-2.517899990081787,0.0,528759.0
1.0,-45.150604248046875,-34.007625579833984,39.88187026977539,22.035797119140625,0.0,0.0,-0.0,-0.0,0.41686904430389404,0.9153419137001038,0.11199922859668732,5.188399791717529,-2.685760021209717,-2.517899990081787,0.0,528760.0
1.0,-1.9833213090896606,-7.6196722984313965,0.23373249173164368,-2.552220344543457,0.0,0.0,-0.0,-0.0,0.41686904430389404,0.9153419137001038,0.11199922859668732,5.188399791717529,-2.685760021209717,-2.517899990081787,0.0,528761.0
1.0,40.6763916015625,23.250778198242188,-35.63041687011719,-26.406116485595703,0.0,0.0,-0.0,-0.0,0.41985976696014404,0.9154639840126038,0.10955782234668732,1.892240047454834,-1.358139991760254,-0.4272800087928772,0.0,528762.0
1.0,58.03770065307617,41.372982025146484,-47.82004165649414,-33.81232833862305,0.0,0.0,-0.0,-0.0,0.41985976696014404,0.9154639840126038,0.10955782234668732,1.892240047454834,-1.358139991760254,-0.4272800087928772,0.0,528763.0
1.0,42.367942810058594,36.99256896972656,-30.103763580322266,-19.151405334472656,0.0,0.0,-0.0,-0.0,0.41985976696014404,0.9154639840126038,0.10955782234668732,1.892240047454834,-1.358139991760254,-0.4272800087928772,0.0,528764.0
1.0,5.781957626342773,13.303755760192871,5.797558784484863,7.876664161682129,0.0,0.0,-0.0,-0.0,0.41985976696014404,0.9154639840126038,0.10955782234668732,1.892240047454834,-1.358139991760254,-0.4272800087928772,0.0,528765.0
1.0,-31.645814895629883,-16.887805938720703,37.23768615722656,29.89995765686035,0.0,0.0,-0.0,-0.0,0.41985976696014404,0.9154639840126038,0.10955782234668732,1.892240047454834,-1.358139991760254,-0.4272800087928772,0.0,528766.0
1.0,-51.705963134765625,-38.31906509399414,45.28899002075195,34.940704345703125,0.0,0.0,-0.0,-0.0,0.41985976696014404,0.9154639840126038,0.10955782234668732,1.892240047454834,-1.358139991760254,-0.4272800087928772,0.0,528767.0
1.0,-44.014469146728516,-40.07557678222656,24.630271911621094,21.119741439819336,0.0,0.0,-0.0,-0.0,0.41985976696014404,0.9154639840126038,0.10955782234668732,1.892240047454834,-1.358139991760254,-0.4272800087928772,0.0,528768.0
1.0,-12.685769081115723,-21.020492553710938,-12.536317825317383,-5.065028190612793,0.0,0.0,-0.0,-0.0,0.41985976696014404,0.9154639840126038,0.10955782234668732,1.892240047454834,-1.358139991760254,-0.4272800087928772,0.0,528769.0
1.0,24.098581314086914,8.87496280670166,-41.92019271850586,-29.85966682434082,0.0,0.0,-0.0,-0.0,0.41985976696014404,0.9154639840126038,0.10955782234668732,1.892240047454834,-1.358139991760254,-0.4272800087928772,0.0,528770.0
1.0,45.47285842895508,33.11192321777344,-43.21512222290039,-37.415103912353516,0.0,0.0,-0.0,-0.0,0.41985976696014404,0.9154639840126038,0.10955782234668732,1.892240047454834,-1.358139991760254,-0.4272800087928772,0.0,528771.0
1.0,40.942081451416016,38.208641052246094,-14.58027172088623,-20.973976135253906,0.0,0.0,-0.0,-0.0,0.41760146617889404,0.9051490426063538,0.11437959223985672,2.304260015487671,-1.876979947090149,-2.6094601154327393,0.0,528772.0
1.0,12.99148178100586,22.012388229370117,25.055599212646484,10.228285789489746,0.0,0.0,-0.0,-0.0,0.41760146617889404,0.9051490426063538,0.11437959223985672,2.304260015487671,-1.876979947090149,-2.6094601154327393,0.0,528773.0
1.0,-25.445053100585938,-5.78300666809082,49.90959167480469,36.65243911743164,0.0,0.0,-0.0,-0.0,0.41760146617889404,0.9051490426063538,0.11437959223985672,2.304260015487671,-1.876979947090149,-2.6094601154327393,0.0,528774.0
1.0,-51.60685348510742,-29.463197708129883,45.25636291503906,41.14077377319336,0.0,0.0,-0.0,-0.0,0.41760146617889404,0.9051490426063538,0.11437959223985672,2.304260015487671,-1.876979947090149,-2.6094601154327393,0.0,528775.0
1.0,-45.78712844848633,-35.77431106567383,13.078801155090332,19.287744522094727,0.0,0.0,-0.0,-0.0,0.41760146617889404,0.9051490426063538,0.11437959223985672,2.304260015487671,-1.876979947090149,-2.6094601154327393,0.0,528776.0
1.0,-9.993734359741211,-21.41016387939453,-30.733610153198242,-17.54094696044922,0.0,0.0,-0.0,-0.0,0.41760146617889404,0.9051490426063538,0.11437959223985672,2.304260015487671,-1.876979947090149,-2.6094601154327393,0.0,528777.0
1.0,33.720497131347656,5.485064506530762,-63.12753677368164,-48.616573333740234,0.0,0.0,-0.0,-0.0,0.41760146617889404,0.9051490426063538,0.11437959223985672,2.304260015487671,-1.876979947090149,-2.6094601154327393,0.0,528778.0
1.0,60.333946228027344,29.91305923461914,-65.55745697021484,-55.34335708618164,0.0,0.0,-0.0,0.0,0.41760146617889404,0.9051490426063538,0.11437959223985672,2.304260015487671,-1.876979947090149,-2.6094601154327393,0.0,528779.0
1.0,55.57994079589844,37.8859748840332,-34.98970413208008,-32.136165618896484,0.0,0.0,-0.0,0.0,0.41760146617889404,0.9051490426063538,0.11437959223985672,2.304260015487671,-1.876979947090149,-2.6094601154327393,0.0,528780.0
1.0,21.927650451660156,24.548114776611328,14.494035720825195,9.626617431640625,0.0,0.0,-0.0,0.0,0.41760146617889404,0.9051490426063538,0.11437959223985672,2.304260015487671,-1.876979947090149,-2.6094601154327393,0.0,528781.0
1.0,-22.96278953552246,-2.9369845390319824,61.41577911376953,49.364723205566406,0.0,0.0,-0.0,0.0,0.41674697399139404,0.8942848443984985,0.11840789765119553,7.294280052185059,-2.517899990081787,-3.189340114593506,0.0,528782.0
1.0,-57.23688888549805,-29.777420043945312,87.09680938720703,68.87959289550781,0.0,0.0,-0.0,0.0,0.41674697399139404,0.8942848443984985,0.11840789765119553,7.294280052185059,-2.517899990081787,-3.189340114593506,0.0,528783.0
1.0,-65.78861236572266,-41.64351272583008,78.85096740722656,59.126426696777344,0.0,0.0,-0.0,0.0,0.41674697399139404,0.8942848443984985,0.11840789765119553,7.294280052185059,-2.517899990081787,-3.189340114593506,0.0,528784.0
1.0,-42.96196365356445,-32.24635696411133,33.612239837646484,22.678024291992188,0.0,0.0,-0.0,0.0,0.41674697399139404,0.8942848443984985,0.11840789765119553,7.294280052185059,-2.517899990081787,-3.189340114593506,0.0,528785.0
1.0,2.8957126140594482,-6.239538192749023,-34.1712532043457,-26.661151885986328,0.0,0.0,-0.0,0.0,0.41674697399139404,0.8942848443984985,0.11840789765119553,7.294280052185059,-2.517899990081787,-3.189340114593506,0.0,528786.0
1.0,47.28662872314453,23.515884399414062,-91.87649536132812,-66.5078353881836,0.0,0.0,-0.0,0.0,0.41674697399139404,0.8942848443984985,0.11840789765119553,7.294280052185059,-2.517899990081787,-3.189340114593506,0.0,528787.0
1.0,64.61754608154297,41.969276428222656,-105.74993896484375,-75.47608184814453,0.0,0.0,-0.0,0.0,0.41674697399139404,0.8942848443984985,0.11840789765119553,7.294280052185059,-2.517899990081787,-3.189340114593506,0.0,528788.0
1.0,47.69692611694336,39.457271575927734,-66.57315063476562,-48.40678787231445,0.0,0.0,-0.0,0.0,0.41674697399139404,0.8942848443984985,0.11840789765119553,7.294280052185059,-2.517899990081787,-3.189340114593506,0.0,528789.0
1.0,8.421159744262695,17.100887298583984,2.4199016094207764,-0.28446704149246216,0.0,0.0,-0.0,0.0,0.41674697399139404,0.8942848443984985,0.11840789765119553,7.294280052185059,-2.517899990081787,-3.189340114593506,0.0,528790.0
1.0,-33.688114166259766,-13.544028282165527,63.130455017089844,44.27580261230469,0.0,0.0,-0.0,0.0,0.41674697399139404,0.8942848443984985,0.11840789765119553,7.294280052185059,-2.517899990081787,-3.189340114593506,0.0,528791.0
1.0,-57.705867767333984,-36.09577178955078,84.49202728271484,63.76117706298828,0.0,0.0,-0.0,0.0,0.41644179821014404,0.8912941217422485,0.11975067108869553,13.596659660339355,-3.723439931869507,-3.753959894180298,0.0,528792.0
1.0,-49.65245819091797,-38.26786804199219,58.250648498535156,50.516021728515625,0.0,0.0,-0.0,0.0,0.41644179821014404,0.8912941217422485,0.11975067108869553,13.596659660339355,-3.723439931869507,-3.753959894180298,0.0,528793.0
1.0,-13.005268096923828,-19.192113876342773,3.9288902282714844,13.196249008178711,0.0,0.0,-0.0,0.0,0.41644179821014404,0.8912941217422485,0.11975067108869553,13.596659660339355,-3.723439931869507,-3.753959894180298,0.0,528794.0
1.0,31.7164363861084,10.066012382507324,-44.04804992675781,-29.35614776611328,0.0,0.0,-0.0,0.0,0.41644179821014404,0.8912941217422485,0.11975067108869553,13.596659660339355,-3.723439931869507,-3.753959894180298,0.0,528795.0
1.0,58.876914978027344,32.57347869873047,-58.13203811645508,-55.21199035644531,0.0,0.0,-0.0,0.0,0.41644179821014404,0.8912941217422485,0.11975067108869553,13.596659660339355,-3.723439931869507,-3.753959894180298,0.0,528796.0
1.0,53.97951889038086,35.401920318603516,-33.68960189819336,-50.160362243652344,0.0,0.0,-0.0,0.0,0.41644179821014404,0.8912941217422485,0.11975067108869553,13.596659660339355,-3.723439931869507,-3.753959894180298,0.0,528797.0
1.0,19.793960571289062,17.40605926513672,11.554314613342285,-16.399169921875,0.0,0.0,-0.0,0.0,0.41644179821014404,0.8912941217422485,0.11975067108869553,13.596659660339355,-3.723439931869507,-3.753959894180298,0.0,528798.0
1.0,-27.442947387695312,-10.986323356628418,50.905155181884766,28.90383529663086,0.0,0.0,-0.0,0.0,0.41644179821014404,0.8912941217422485,0.11975067108869553,13.596659660339355,-3.723439931869507,-3.753959894180298,0.0,528799.0
1.0,-62.54303741455078,-34.038875579833984,62.757381439208984,60.96107864379883,0.0,0.0,-0.0,0.0,0.41644179821014404,0.8912941217422485,0.11975067108869553,13.596659660339355,-3.723439931869507,-3.753959894180298,0.0,528800.0
1.0,-63.56733703613281,-38.84635925292969,39.80070877075195,59.983795166015625,0.0,0.0,-0.0,0.0,0.41644179821014404,0.8912941217422485,0.11975067108869553,13.596659660339355,-3.723439931869507,-3.753959894180298,0.0,528801.0
1.0,-28.27878189086914,-22.32876968383789,-8.784980773925781,24.082191467285156,0.0,0.0,-0.0,0.0,0.41882216930389404,0.9030738472938538,0.11230439692735672,11.567079544067383,-1.6938600540161133,-0.6409199833869934,0.0,528802.0
1.0,22.478368759155273,7.0249924659729,-60.00179672241211,-27.66973876953125,0.0,0.0,-0.0,0.0,0.41882216930389404,0.9030738472938538,0.11230439692735672,11.567079544067383,-1.6938600540161133,-0.6409199833869934,0.0,528803.0
1.0,59.36235046386719,33.658626556396484,-84.66236877441406,-65.03093719482422,0.0,0.0,-0.0,0.0,0.41882216930389404,0.9030738472938538,0.11230439692735672,11.567079544067383,-1.6938600540161133,-0.6409199833869934,0.0,528804.0
1.0,63.359432220458984,43.21269989013672,-63.985530853271484,-65.2357177734375,0.0,0.0,-0.0,0.0,0.41882216930389404,0.9030738472938538,0.11230439692735672,11.567079544067383,-1.6938600540161133,-0.6409199833869934,0.0,528805.0
1.0,33.708900451660156,30.422014236450195,-6.492232322692871,-27.712459564208984,0.0,0.0,-0.0,0.0,0.41882216930389404,0.9030738472938538,0.11230439692735672,11.567079544067383,-1.6938600540161133,-0.6409199833869934,0.0,528806.0
1.0,-13.987447738647461,1.7584339380264282,55.71668243408203,26.21504783630371,0.0,0.0,-0.0,0.0,0.41882216930389404,0.9030738472938538,0.11230439692735672,11.567079544067383,-1.6938600540161133,-0.6409199833869934,0.0,528807.0
1.0,-55.349754333496094,-28.07962989807129,90.1395263671875,66.25401306152344,0.0,0.0,-0.0,0.0,0.41882216930389404,0.9030738472938538,0.11230439692735672,11.567079544067383,-1.6938600540161133,-0.6409199833869934,0.0,528808.0
1.0,-68.15360260009766,-43.388389587402344,81.19017791748047,69.73374938964844,0.0,0.0,-0.0,0.0,0.41882216930389404,0.9030738472938538,0.11230439692735672,11.567079544067383,-1.6938600540161133,-0.6409199833869934,0.0,528809.0
1.0,-42.59817123413086,-35.82016372680664,33.9614143371582,34.436859130859375,0.0,0.0,-0.0,0.0,0.41882216930389404,0.9030738472938538,0.11230439692735672,11.567079544067383,-1.6938600540161133,-0.6409199833869934,0.0,528810.0
1.0,10.655414581298828,-9.379359245300293,-28.91041374206543,-19.730783462524414,0.0,0.0,-0.0,0.0,0.41882216930389404,0.9030738472938538,0.11230439692735672,11.567079544067383,-1.6938600540161133,-0.6409199833869934,0.0,528811.0
1.0,62.20396423339844,21.48953628540039,-78.00586700439453,-63.9168701171875,0.0,0.0,-0.0,0.0,0.41754043102264404,0.9185157418251038,0.10699435323476791,1.2970999479293823,-1.5717799663543701,0.701960027217865,0.0,528812.0
1.0,80.66447448730469,39.75370788574219,-91.29364776611328,-76.82146453857422,0.0,0.0,-0.0,0.0,0.41754043102264404,0.9185157418251038,0.10699435323476791,1.2970999479293823,-1.5717799663543701,0.701960027217865,0.0,528813.0
1.0,53.998722076416016,35.70911407470703,-63.17720413208008,-52.34437561035156,0.0,0.0,-0.0,0.0,0.41754043102264404,0.9185157418251038,0.10699435323476791,1.2970999479293823,-1.5717799663543701,0.701960027217865,0.0,528814.0
1.0,-2.223053216934204,12.381635665893555,-6.9082136154174805,-1.8543702363967896,0.0,0.0,-0.0,0.0,0.41754043102264404,0.9185157418251038,0.10699435323476791,1.2970999479293823,-1.5717799663543701,0.701960027217865,0.0,528815.0
1.0,-56.33995056152344,-17.1534366607666,50.089752197265625,48.84931945800781,0.0,0.0,-0.0,0.0,0.41754043102264404,0.9185157418251038,0.10699435323476791,1.2970999479293823,-1.5717799663543701,0.701960027217865,0.0,528816.0
1.0,-80.4560317993164,-36.9627799987793,79.31654357910156,72.93473052978516,0.0,0.0,-0.0,0.0,0.41754043102264404,0.9185157418251038,0.10699435323476791,1.2970999479293823,-1.5717799663543701,0.701960027217865,0.0,528817.0
1.0,-64.43526458740234,-36.25999450683594,67.82951354980469,59.53703689575195,0.0,0.0,-0.0,0.0,0.41754043102264404,0.9185157418251038,0.10699435323476791,1.2970999479293823,-1.5717799663543701,0.701960027217865,0.0,528818.0
1.0,-18.370988845825195,-15.149378776550293,24.30457305908203,19.46975326538086,0.0,0.0,-0.0,0.0,0.41754043102264404,0.9185157418251038,0.10699435323476791,1.2970999479293823,-1.5717799663543701,0.701960027217865,0.0,528819.0
1.0,35.16725158691406,15.228494644165039,-29.52900505065918,-25.785917282104492,0.0,0.0,-0.0,0.0,0.41754043102264404,0.9185157418251038,0.10699435323476791,1.2970999479293823,-1.5717799663543701,0.701960027217865,0.0,528820.0
1.0,70.06104278564453,38.13288879394531,-66.71039581298828,-56.36472702026367,0.0,0.0,-0.0,0.0,0.41754043102264404,0.9185157418251038,0.10699435323476791,1.2970999479293823,-1.5717799663543701,0.701960027217865,0.0,528821.0
1.0,66.28458404541016,40.47521209716797,-63.292442321777344,-58.102664947509766,0.0,0.0,-0.0,0.0,0.41357314586639404,0.9166236519813538,0.10967989265918732,-3.3266799449920654,-3.082520008087158,-0.9613800048828125,0.0,528822.0
1.0,24.317466735839844,20.72234344482422,-16.532623291015625,-28.156768798828125,0.0,0.0,-0.0,0.0,0.41357314586639404,0.9166236519813538,0.10967989265918732,-3.3266799449920654,-3.082520008087158,-0.9613800048828125,0.0,528823.0
1.0,-30.73174476623535,-10.645902633666992,45.733089447021484,18.410850524902344,0.0,0.0,-0.0,0.0,0.41357314586639404,0.9166236519813538,0.10967989265918732,-3.3266799449920654,-3.082520008087158,-0.9613800048828125,0.0,528824.0
1.0,-64.71900177001953,-37.07950973510742,81.46598052978516,53.59407043457031,0.0,0.0,-0.0,0.0,0.41357314586639404,0.9166236519813538,0.10967989265918732,-3.3266799449920654,-3.082520008087158,-0.9613800048828125,0.0,528825.0
1.0,-58.31565856933594,-44.331295013427734,65.51433563232422,55.65910720825195,0.0,0.0,-0.0,0.0,0.41357314586639404,0.9166236519813538,0.10967989265918732,-3.3266799449920654,-3.082520008087158,-0.9613800048828125,0.0,528826.0
1.0,-18.39440155029297,-28.08057975769043,7.839303493499756,25.129840850830078,0.0,0.0,-0.0,0.0,0.41357314586639404,0.9166236519813538,0.10967989265918732,-3.3266799449920654,-3.082520008087158,-0.9613800048828125,0.0,528827.0
1.0,30.75858497619629,3.343092918395996,-57.140541076660156,-18.37114715576172,0.0,0.0,-0.0,0.0,0.41357314586639404,0.9166236519813538,0.10967989265918732,-3.3266799449920654,-3.082520008087158,-0.9613800048828125,0.0,528828.0
1.0,61.455936431884766,33.02094268798828,-93.13340759277344,-49.64751052856445,0.0,0.0,-0.0,0.0,0.41357314586639404,0.9166236519813538,0.10967989265918732,-3.3266799449920654,-3.082520008087158,-0.9613800048828125,0.0,528829.0
1.0,57.373172760009766,44.783512115478516,-79.52288818359375,-51.506893157958984,0.0,0.0,-0.0,0.0,0.41357314586639404,0.9166236519813538,0.10967989265918732,-3.3266799449920654,-3.082520008087158,-0.9613800048828125,0.0,528830.0
1.0,23.180545806884766,32.690189361572266,-21.60120391845703,-24.261333465576172,0.0,0.0,-0.0,0.0,0.41357314586639404,0.9166236519813538,0.10967989265918732,-3.3266799449920654,-3.082520008087158,-0.9613800048828125,0.0,528831.0
1.0,-22.21617317199707,3.7902419567108154,50.941314697265625,15.939809799194336,0.0,0.0,0.0,0.0,0.41546523571014404,0.9025855660438538,0.11444062739610672,2.8231000900268555,-2.548419952392578,0.2594200074672699,0.0,528832.0
1.0,-55.96487045288086,-26.495193481445312,97.6769790649414,46.75724792480469,0.0,0.0,0.0,0.0,0.41546523571014404,0.9025855660438538,0.11444062739610672,2.8231000900268555,-2.548419952392578,0.2594200074672699,0.0,528833.0
1.0,-59.04029083251953,-42.21696472167969,90.43073272705078,50.45261764526367,0.0,0.0,0.0,0.0,0.41546523571014404,0.9025855660438538,0.11444062739610672,2.8231000900268555,-2.548419952392578,0.2594200074672699,0.0,528834.0
1.0,-27.844175338745117,-35.046897888183594,32.98198318481445,23.441572189331055,0.0,0.0,0.0,0.0,0.41546523571014404,0.9025855660438538,0.11444062739610672,2.8231000900268555,-2.548419952392578,0.2594200074672699,0.0,528835.0
1.0,19.680240631103516,-8.956459045410156,-40.98967361450195,-20.163761138916016,0.0,0.0,0.0,0.0,0.41546523571014404,0.9025855660438538,0.11444062739610672,2.8231000900268555,-2.548419952392578,0.2594200074672699,0.0,528836.0
1.0,53.952335357666016,21.678699493408203,-89.82672882080078,-54.324462890625,0.0,0.0,0.0,0.0,0.41546523571014404,0.9025855660438538,0.11444062739610672,2.8231000900268555,-2.548419952392578,0.2594200074672699,0.0,528837.0
1.0,55.00623321533203,39.77647018432617,-89.0230484008789,-56.90565872192383,0.0,0.0,0.0,0.0,0.41546523571014404,0.9025855660438538,0.11444062739610672,2.8231000900268555,-2.548419952392578,0.2594200074672699,0.0,528838.0
1.0,25.81206512451172,35.50355911254883,-43.4631233215332,-26.216886520385742,0.0,0.0,0.0,0.0,0.41546523571014404,0.9025855660438538,0.11444062739610672,2.8231000900268555,-2.548419952392578,0.2594200074672699,0.0,528839.0
1.0,-14.721900939941406,11.841689109802246,19.568265914916992,19.00905990600586,0.0,0.0,0.0,0.0,0.41546523571014404,0.9025855660438538,0.11444062739610672,2.8231000900268555,-2.548419952392578,0.2594200074672699,0.0,528840.0
1.0,-46.42961120605469,-18.07563591003418,67.68218994140625,54.7734489440918,0.0,0.0,0.0,0.0,0.41546523571014404,0.9025855660438538,0.11444062739610672,2.8231000900268555,-2.548419952392578,0.2594200074672699,0.0,528841.0
1.0,-55.37238693237305,-38.27287673950195,78.91317749023438,63.99460220336914,0.0,0.0,0.0,0.0,0.41754043102264404,0.8941627740859985,0.11639374494552612,11.719679832458496,-2.044840097427368,1.541260004043579,0.0,528842.0
1.0,-36.834747314453125,-37.97910690307617,50.561519622802734,41.62742233276367,0.0,0.0,0.0,0.0,0.41754043102264404,0.8941627740859985,0.11639374494552612,11.719679832458496,-2.044840097427368,1.541260004043579,0.0,528843.0
1.0,0.6710692644119263,-17.20317840576172,-0.31126731634140015,-0.8969946503639221,0.0,0.0,0.0,0.0,0.41754043102264404,0.8941627740859985,0.11639374494552612,11.719679832458496,-2.044840097427368,1.541260004043579,0.0,528844.0
1.0,37.76538848876953,13.340591430664062,-47.542686462402344,-40.77824783325195,0.0,0.0,0.0,0.0,0.41754043102264404,0.8941627740859985,0.11639374494552612,11.719679832458496,-2.044840097427368,1.541260004043579,0.0,528845.0
1.0,56.09224319458008,37.26542663574219,-70.03950500488281,-59.85212707519531,0.0,0.0,0.0,0.0,0.41754043102264404,0.8941627740859985,0.11639374494552612,11.719679832458496,-2.044840097427368,1.541260004043579,0.0,528846.0
1.0,47.28617477416992,41.164306640625,-57.87893295288086,-52.366416931152344,0.0,0.0,0.0,0.0,0.41754043102264404,0.8941627740859985,0.11639374494552612,11.719679832458496,-2.044840097427368,1.541260004043579,0.0,528847.0
1.0,14.097108840942383,22.80133056640625,-13.874926567077637,-22.3151798248291,0.0,0.0,0.0,0.0,0.41754043102264404,0.8941627740859985,0.11639374494552612,11.719679832458496,-2.044840097427368,1.541260004043579,0.0,528848.0
1.0,-28.970848083496094,-7.783999919891357,43.961002349853516,17.95747184753418,0.0,0.0,0.0,0.0,0.41754043102264404,0.8941627740859985,0.11639374494552612,11.719679832458496,-2.044840097427368,1.541260004043579,0.0,528849.0
1.0,-58.62132263183594,-34.030513763427734,83.73896789550781,49.033084869384766,0.0,0.0,0.0,0.0,0.41754043102264404,0.8941627740859985,0.11639374494552612,11.719679832458496,-2.044840097427368,1.541260004043579,0.0,528850.0
1.0,-56.805660247802734,-41.614891052246094,77.13713836669922,53.671138763427734,0.0,0.0,0.0,0.0,0.41754043102264404,0.8941627740859985,0.11639374494552612,11.719679832458496,-2.044840097427368,1.541260004043579,0.0,528851.0
1.0,-23.85759925842285,-26.426013946533203,25.270593643188477,29.608135223388672,0.0,0.0,0.0,0.0,0.41802871227264404,0.8974586129188538,0.11242646723985672,12.94048023223877,-1.892240047454834,0.732479989528656,0.0,528852.0
1.0,21.606407165527344,3.156489372253418,-39.95586395263672,-8.44268798828125,0.0,0.0,0.0,0.0,0.41802871227264404,0.8974586129188538,0.11242646723985672,12.94048023223877,-1.892240047454834,0.732479989528656,0.0,528853.0
1.0,54.58095932006836,30.694921493530273,-81.97086334228516,-38.77732467651367,0.0,0.0,0.0,0.0,0.41802871227264404,0.8974586129188538,0.11242646723985672,12.94048023223877,-1.892240047454834,0.732479989528656,0.0,528854.0
1.0,60.242767333984375,40.669063568115234,-82.51754760742188,-44.900917053222656,0.0,0.0,0.0,0.0,0.41802871227264404,0.8974586129188538,0.11242646723985672,12.94048023223877,-1.892240047454834,0.732479989528656,0.0,528855.0
1.0,38.86141586303711,27.721712112426758,-44.482177734375,-23.674991607666016,0.0,0.0,0.0,0.0,0.41802871227264404,0.8974586129188538,0.11242646723985672,12.94048023223877,-1.892240047454834,0.732479989528656,0.0,528856.0
1.0,-0.6127660274505615,-0.5810635685920715,14.26298999786377,12.726682662963867,0.0,0.0,0.0,0.0,0.41802871227264404,0.8974586129188538,0.11242646723985672,12.94048023223877,-1.892240047454834,0.732479989528656,0.0,528857.0
1.0,-41.67917251586914,-28.759319305419922,63.780670166015625,41.668296813964844,0.0,0.0,0.0,0.0,0.41802871227264404,0.8974586129188538,0.11242646723985672,12.94048023223877,-1.892240047454834,0.732479989528656,0.0,528858.0
1.0,-61.22615051269531,-41.65407943725586,74.78211975097656,42.9981575012207,0.0,0.0,0.0,0.0,0.41802871227264404,0.8974586129188538,0.11242646723985672,12.94048023223877,-1.892240047454834,0.732479989528656,0.0,528859.0
1.0,-44.735321044921875,-32.167423248291016,43.01508331298828,14.820920944213867,0.0,0.0,0.0,0.0,0.41802871227264404,0.8974586129188538,0.11242646723985672,12.94048023223877,-1.892240047454834,0.732479989528656,0.0,528860.0
1.0,-2.839873790740967,-4.992770195007324,-7.438491344451904,-24.14788246154785,0.0,0.0,0.0,-0.0,0.41802871227264404,0.8974586129188538,0.11242646723985672,12.94048023223877,-1.892240047454834,0.732479989528656,0.0,528861.0
1.0,35.89809799194336,25.73177719116211,-46.37605285644531,-49.27153015136719,0.0,0.0,0.0,-0.0,0.41754043102264404,0.9034400582313538,0.11047334969043732,10.620960235595703,-2.0601000785827637,0.5340999960899353,0.0,528862.0
1.0,47.863765716552734,43.55667495727539,-54.39680862426758,-45.326725006103516,0.0,0.0,0.0,-0.0,0.41754043102264404,0.9034400582313538,0.11047334969043732,10.620960235595703,-2.0601000785827637,0.5340999960899353,0.0,528863.0
1.0,28.95723533630371,38.76083755493164,-29.489099502563477,-14.22553539276123,0.0,0.0,0.0,-0.0,0.41754043102264404,0.9034400582313538,0.11047334969043732,10.620960235595703,-2.0601000785827637,0.5340999960899353,0.0,528864.0
1.0,-5.864551544189453,13.76181697845459,11.519392013549805,25.45881462097168,0.0,0.0,0.0,-0.0,0.41754043102264404,0.9034400582313538,0.11047334969043732,10.620960235595703,-2.0601000785827637,0.5340999960899353,0.0,528865.0
1.0,-34.91621398925781,-18.548559188842773,43.11764907836914,50.25877380371094,0.0,0.0,0.0,-0.0,0.41754043102264404,0.9034400582313538,0.11047334969043732,10.620960235595703,-2.0601000785827637,0.5340999960899353,0.0,528866.0
1.0,-42.99742889404297,-41.17026901245117,47.06237030029297,46.92293167114258,0.0,0.0,0.0,-0.0,0.41754043102264404,0.9034400582313538,0.11047334969043732,10.620960235595703,-2.0601000785827637,0.5340999960899353,0.0,528867.0
1.0,-26.641448974609375,-41.725791931152344,22.09320640563965,18.589038848876953,0.0,0.0,0.0,-0.0,0.41754043102264404,0.9034400582313538,0.11047334969043732,10.620960235595703,-2.0601000785827637,0.5340999960899353,0.0,528868.0
1.0,5.75374698638916,-19.749753952026367,-16.694393157958984,-18.886999130249023,0.0,0.0,0.0,-0.0,0.41754043102264404,0.9034400582313538,0.11047334969043732,10.620960235595703,-2.0601000785827637,0.5340999960899353,0.0,528869.0
1.0,37.13581085205078,12.776694297790527,-47.928123474121094,-45.99188232421875,0.0,0.0,0.0,-0.0,0.41754043102264404,0.9034400582313538,0.11047334969043732,10.620960235595703,-2.0601000785827637,0.5340999960899353,0.0,528870.0
1.0,50.54353332519531,37.940860748291016,-55.96158981323242,-49.60036087036133,0.0,0.0,0.0,-0.0,0.41754043102264404,0.9034400582313538,0.11047334969043732,10.620960235595703,-2.0601000785827637,0.5340999960899353,0.0,528871.0
1.0,38.803653717041016,42.07492446899414,-37.11655044555664,-28.92116355895996,0.0,0.0,0.0,-0.0,0.41961562633514404,0.9064918160438538,0.10644503682851791,7.85890007019043,-2.487380027770996,1.8312000036239624,0.0,528872.0
1.0,6.8263115882873535,23.472183227539062,0.2778737545013428,5.985293865203857,0.0,0.0,0.0,-0.0,0.41961562633514404,0.9064918160438538,0.10644503682851791,7.85890007019043,-2.487380027770996,1.8312000036239624,0.0,528873.0
1.0,-31.539939880371094,-7.426424026489258,40.55430603027344,39.43403625488281,0.0,0.0,0.0,-0.0,0.41961562633514404,0.9064918160438538,0.10644503682851791,7.85890007019043,-2.487380027770996,1.8312000036239624,0.0,528874.0
1.0,-57.21333312988281,-33.827762603759766,67.14595794677734,54.18124771118164,0.0,0.0,0.0,-0.0,0.41961562633514404,0.9064918160438538,0.10644503682851791,7.85890007019043,-2.487380027770996,1.8312000036239624,0.0,528875.0
1.0,-55.152828216552734,-41.38591003417969,67.90599060058594,40.42982482910156,0.0,0.0,0.0,-0.0,0.41961562633514404,0.9064918160438538,0.10644503682851791,7.85890007019043,-2.487380027770996,1.8312000036239624,0.0,528876.0
1.0,-25.238195419311523,-26.293113708496094,39.4638671875,6.0829033851623535,0.0,0.0,0.0,-0.0,0.41961562633514404,0.9064918160438538,0.10644503682851791,7.85890007019043,-2.487380027770996,1.8312000036239624,0.0,528877.0
1.0,18.11208724975586,2.7771379947662354,-8.425588607788086,-28.41132354736328,0.0,0.0,0.0,-0.0,0.41961562633514404,0.9064918160438538,0.10644503682851791,7.85890007019043,-2.487380027770996,1.8312000036239624,0.0,528878.0
1.0,53.400779724121094,29.72761344909668,-52.43199157714844,-44.46637725830078,0.0,0.0,0.0,-0.0,0.41961562633514404,0.9064918160438538,0.10644503682851791,7.85890007019043,-2.487380027770996,1.8312000036239624,0.0,528879.0
1.0,62.094539642333984,39.85976791381836,-68.91537475585938,-35.0234489440918,0.0,0.0,0.0,-0.0,0.41961562633514404,0.9064918160438538,0.10644503682851791,7.85890007019043,-2.487380027770996,1.8312000036239624,0.0,528880.0
