CH_1,CH_2,CH_3,CH_4,CH_5,CH_6,CH_7,CH_8,CH_9,CH_10,CH_11,CH_12,CH_13,CH_14,CH_15,CH_16,CH_17
1.0,191.5598907470703,10.893301010131836,-227.74009704589844,-102.1502914428711,0.0,0.0,0.0,0.0,0.3972768187522888,0.9052711129188538,0.05450425669550896,-4.578000068664551,-4.471179962158203,13.489839553833008,0.0,518327.0
1.0,89.16297149658203,33.42588424682617,-227.5306396484375,-151.4485321044922,0.0,0.0,0.0,0.0,0.3972768187522888,0.9052711129188538,0.05450425669550896,-4.578000068664551,-4.471179962158203,13.489839553833008,0.0,518328.0
1.0,-48.223915100097656,36.903472900390625,-126.69600677490234,-128.2765655517578,0.0,0.0,0.0,0.0,0.3972768187522888,0.9052711129188538,0.05450425669550896,-4.578000068664551,-4.471179962158203,13.489839553833008,0.0,518329.0
1.0,-146.63995361328125,20.73739242553711,36.98468017578125,-39.49983215332031,0.0,0.0,0.0,0.0,0.3972768187522888,0.9052711129188538,0.05450425669550896,-4.578000068664551,-4.471179962158203,13.489839553833008,0.0,518330.0
1.0,-159.3784637451172,-5.842624187469482,187.7113800048828,62.78357696533203,0.0,0.0,0.0,-0.0,0.3972768187522888,0.9052711129188538,0.05450425669550896,-4.578000068664551,-4.471179962158203,13.489839553833008,0.0,518331.0
1.0,-95.0075912475586,-29.3969783782959,243.4690704345703,118.41398620605469,0.0,0.0,0.0,-0.0,0.3759145736694336,0.8527809977531433,0.030578535050153732,19.33441925048828,-3.9828600883483887,4.7153401374816895,0.0,518332.0
1.0,0.3209267556667328,-37.74787139892578,172.50584411621094,106.13789367675781,0.0,0.0,0.0,-0.0,0.3759145736694336,0.8527809977531433,0.030578535050153732,19.33441925048828,-3.9828600883483887,4.7153401374816895,0.0,518333.0
1.0,77.1466293334961,-25.57626724243164,25.392799377441406,52.815284729003906,0.0,0.0,0.0,-0.0,0.3759145736694336,0.8527809977531433,0.030578535050153732,19.33441925048828,-3.9828600883483887,4.7153401374816895,0.0,518334.0
1.0,98.88793182373047,1.473958134651184,-103.59855651855469,-7.671215534210205,0.0,0.0,0.0,-0.0,0.3759145736694336,0.8527809977531433,0.030578535050153732,19.33441925048828,-3.9828600883483887,4.7153401374816895,0.0,518335.0
1.0,56.45942687988281,28.380338668823242,-149.00685119628906,-59.982696533203125,0.0,0.0,0.0,-0.0,0.3759145736694336,0.8527809977531433,0.030578535050153732,19.33441925048828,-3.9828600883483887,4.7153401374816895,0.0,518336.0
1.0,-18.788009643554688,39.65375900268555,-106.5007095336914,-87.29034423828125,0.0,0.0,0.0,-0.0,0.3759145736694336,0.8527809977531433,0.030578535050153732,19.33441925048828,-3.9828600883483887,4.7153401374816895,0.0,518337.0
1.0,-77.29517364501953,29.16652488708496,-17.108991622924805,-70.00261688232422,0.0,0.0,0.0,-0.0,0.3759145736694336,0.8527809977531433,0.030578535050153732,19.33441925048828,-3.9828600883483887,4.7153401374816895,0.0,518338.0
1.0,-91.5839614868164,2.5502030849456787,62.97533416748047,-15.168686866760254,0.0,0.0,0.0,-0.0,0.3759145736694336,0.8527809977531433,0.030578535050153732,19.33441925048828,-3.9828600883483887,4.7153401374816895,0.0,518339.0
1.0,-63.32693862915039,-26.514360427856445,90.7055892944336,43.734893798828125,0.0,0.0,0.0,-0.0,0.3759145736694336,0.8527809977531433,0.030578535050153732,19.33441925048828,-3.9828600883483887,4.7153401374816895,0.0,518340.0
1.0,-8.3020658493042,-42.21354293823242,58.79993438720703,77.4041748046875,0.0,0.0,0.0,-0.0,0.3759145736694336,0.8527809977531433,0.030578535050153732,19.33441925048828,-3.9828600883483887,4.7153401374816895,0.0,518341.0
1.0,48.27534866333008,-35.034732818603516,-8.718585014343262,73.92546844482422,0.0,0.0,0.0,-0.0,0.40667620301246643,0.8779884576797485,-0.002380365040153265,26.903379440307617,3.113039970397949,4.242280006408691,0.0,518342.0
1.0,79.4771957397461,-8.368016242980957,-83.9508056640625,33.71113204956055,0.0,0.0,0.0,-0.0,0.40667620301246643,0.8779884576797485,-0.002380365040153265,26.903379440307617,3.113039970397949,4.242280006408691,0.0,518343.0
1.0,73.45795440673828,23.180381774902344,-136.5006103515625,-28.700347900390625,0.0,0.0,0.0,-0.0,0.40667620301246643,0.8779884576797485,-0.002380365040153265,26.903379440307617,3.113039970397949,4.242280006408691,0.0,518344.0
1.0,41.83441162109375,42.588539123535156,-123.59795379638672,-83.52666473388672,0.0,0.0,0.0,-0.0,0.40667620301246643,0.8779884576797485,-0.002380365040153265,26.903379440307617,3.113039970397949,4.242280006408691,0.0,518345.0
1.0,8.097649574279785,40.015777587890625,-22.422752380371094,-97.97744750976562,0.0,0.0,0.0,-0.0,0.40667620301246643,0.8779884576797485,-0.002380365040153265,26.903379440307617,3.113039970397949,4.242280006408691,0.0,518346.0
1.0,-16.983163833618164,17.24336814880371,130.51129150390625,-56.23383331298828,0.0,0.0,0.0,-0.0,0.40667620301246643,0.8779884576797485,-0.002380365040153265,26.903379440307617,3.113039970397949,4.242280006408691,0.0,518347.0
1.0,-37.467506408691406,-14.284127235412598,247.85227966308594,21.695642471313477,0.0,0.0,0.0,-0.0,0.40667620301246643,0.8779884576797485,-0.002380365040153265,26.903379440307617,3.113039970397949,4.242280006408691,0.0,518348.0
1.0,-45.96171951293945,-38.619789123535156,246.5966796875,86.61697387695312,0.0,0.0,0.0,-0.0,0.40667620301246643,0.8779884576797485,-0.002380365040153265,26.903379440307617,3.113039970397949,4.242280006408691,0.0,518349.0
1.0,-24.082910537719727,-42.578739166259766,113.69242858886719,102.09500122070312,0.0,0.0,0.0,-0.0,0.40667620301246643,0.8779884576797485,-0.002380365040153265,26.903379440307617,3.113039970397949,4.242280006408691,0.0,518350.0
1.0,21.850343704223633,-23.569541931152344,-83.1156997680664,72.62694549560547,0.0,0.0,0.0,-0.0,0.40667620301246643,0.8779884576797485,-0.002380365040153265,26.903379440307617,3.113039970397949,4.242280006408691,0.0,518351.0
1.0,55.7045783996582,7.836826324462891,-246.37664794921875,24.419471740722656,0.0,0.0,0.0,-0.0,0.41027727723121643,0.9173560738563538,-0.015991169959306717,-11.10927963256836,2.77731990814209,-9.125479698181152,0.0,518352.0
1.0,47.43244934082031,33.715797424316406,-299.2665100097656,-22.833553314208984,0.0,0.0,0.0,-0.0,0.41027727723121643,0.9173560738563538,-0.015991169959306717,-11.10927963256836,2.77731990814209,-9.125479698181152,0.0,518353.0
1.0,-2.113290309906006,39.689212799072266,-216.47291564941406,-56.756439208984375,0.0,0.0,0.0,-0.0,0.41027727723121643,0.9173560738563538,-0.015991169959306717,-11.10927963256836,2.77731990814209,-9.125479698181152,0.0,518354.0
1.0,-64.37773895263672,23.292863845825195,-38.6489372253418,-64.32044219970703,0.0,0.0,0.0,-0.0,0.41027727723121643,0.9173560738563538,-0.015991169959306717,-11.10927963256836,2.77731990814209,-9.125479698181152,0.0,518355.0
1.0,-99.07523345947266,-5.6813201904296875,147.58033752441406,-42.66386795043945,0.0,0.0,0.0,-0.0,0.41027727723121643,0.9173560738563538,-0.015991169959306717,-11.10927963256836,2.77731990814209,-9.125479698181152,0.0,518356.0
1.0,-80.51907348632812,-31.05489730834961,254.9574432373047,-9.041952133178711,0.0,0.0,0.0,-0.0,0.41027727723121643,0.9173560738563538,-0.015991169959306717,-11.10927963256836,2.77731990814209,-9.125479698181152,0.0,518357.0
1.0,-21.23312759399414,-38.796730041503906,238.9575653076172,13.365078926086426,0.0,0.0,0.0,-0.0,0.41027727723121643,0.9173560738563538,-0.015991169959306717,-11.10927963256836,2.77731990814209,-9.125479698181152,0.0,518358.0
1.0,38.718868255615234,-24.61495018005371,120.03936004638672,13.176369667053223,0.0,0.0,0.0,-0.0,0.41027727723121643,0.9173560738563538,-0.015991169959306717,-11.10927963256836,2.77731990814209,-9.125479698181152,0.0,518359.0
1.0,69.33785247802734,3.955904722213745,-31.91075897216797,-4.359996318817139,0.0,0.0,0.0,-0.0,0.41027727723121643,0.9173560738563538,-0.015991169959306717,-11.10927963256836,2.77731990814209,-9.125479698181152,0.0,518360.0
1.0,76.34281921386719,31.671138763427734,-142.3048858642578,-22.179746627807617,0.0,0.0,0.0,-0.0,0.41027727723121643,0.9173560738563538,-0.015991169959306717,-11.10927963256836,2.77731990814209,-9.125479698181152,0.0,518361.0
1.0,83.46987915039062,43.50119400024414,-172.2124786376953,-23.697113037109375,0.0,0.0,0.0,-0.0,0.3923329710960388,0.8818947076797485,-0.00012206999963382259,-14.237580299377441,-9.018659591674805,-23.40884017944336,0.0,518362.0
1.0,85.49964141845703,32.535518646240234,-130.6392364501953,-3.2719063758850098,0.0,0.0,0.0,-0.0,0.3923329710960388,0.8818947076797485,-0.00012206999963382259,-14.237580299377441,-9.018659591674805,-23.40884017944336,0.0,518363.0
1.0,46.688594818115234,3.491454839706421,-57.688350677490234,31.220293045043945,0.0,0.0,0.0,-0.0,0.3923329710960388,0.8818947076797485,-0.00012206999963382259,-14.237580299377441,-9.018659591674805,-23.40884017944336,0.0,518364.0
1.0,-41.05731201171875,-29.067968368530273,6.124189853668213,59.14653778076172,0.0,0.0,0.0,-0.0,0.3923329710960388,0.8818947076797485,-0.00012206999963382259,-14.237580299377441,-9.018659591674805,-23.40884017944336,0.0,518365.0
1.0,-130.35203552246094,-47.28208923339844,47.24754333496094,59.28285217285156,0.0,0.0,0.0,-0.0,0.3923329710960388,0.8818947076797485,-0.00012206999963382259,-14.237580299377441,-9.018659591674805,-23.40884017944336,0.0,518366.0
1.0,-159.3792266845703,-40.15616989135742,75.66360473632812,29.108488082885742,0.0,0.0,0.0,-0.0,0.3923329710960388,0.8818947076797485,-0.00012206999963382259,-14.237580299377441,-9.018659591674805,-23.40884017944336,0.0,518367.0
1.0,-102.7034683227539,-10.990484237670898,90.96208190917969,-17.474910736083984,0.0,0.0,0.0,-0.0,0.3923329710960388,0.8818947076797485,-0.00012206999963382259,-14.237580299377441,-9.018659591674805,-23.40884017944336,0.0,518368.0
1.0,8.274310111999512,23.984426498413086,75.71558380126953,-62.56794357299805,0.0,0.0,0.0,-0.0,0.3923329710960388,0.8818947076797485,-0.00012206999963382259,-14.237580299377441,-9.018659591674805,-23.40884017944336,0.0,518369.0
1.0,101.7165756225586,44.90093994140625,27.084280014038086,-83.83356475830078,0.0,0.0,0.0,-0.0,0.3923329710960388,0.8818947076797485,-0.00012206999963382259,-14.237580299377441,-9.018659591674805,-23.40884017944336,0.0,518370.0
1.0,119.01436614990234,40.2244873046875,-31.202503204345703,-63.160160064697266,0.0,0.0,0.0,-0.0,0.3923329710960388,0.8818947076797485,-0.00012206999963382259,-14.237580299377441,-9.018659591674805,-23.40884017944336,0.0,518371.0
1.0,51.69191360473633,13.208656311035156,-66.84734344482422,-5.097202301025391,0.0,0.0,0.0,-0.0,0.3895864188671112,0.8555275797843933,0.0019531199941411614,19.15130043029785,-4.593259811401367,-27.437480926513672,0.0,518372.0
1.0,-63.842315673828125,-21.165918350219727,-57.77001190185547,62.40378189086914,0.0,0.0,0.0,-0.0,0.3895864188671112,0.8555275797843933,0.0019531199941411614,19.15130043029785,-4.593259811401367,-27.437480926513672,0.0,518373.0
1.0,-145.55995178222656,-44.13180160522461,-13.502677917480469,97.98517608642578,0.0,0.0,0.0,-0.0,0.3895864188671112,0.8555275797843933,0.0019531199941411614,19.15130043029785,-4.593259811401367,-27.437480926513672,0.0,518374.0
1.0,-100.24344635009766,-42.38790512084961,23.173233032226562,68.68724060058594,0.0,0.0,0.0,-0.0,0.3895864188671112,0.8555275797843933,0.0019531199941411614,19.15130043029785,-4.593259811401367,-27.437480926513672,0.0,518375.0
1.0,68.2509536743164,-16.113666534423828,22.680044174194336,-10.99280071258545,0.0,0.0,0.0,-0.0,0.3895864188671112,0.8555275797843933,0.0019531199941411614,19.15130043029785,-4.593259811401367,-27.437480926513672,0.0,518376.0
1.0,227.80479431152344,20.155353546142578,-0.6077583432197571,-79.8177719116211,0.0,0.0,0.0,-0.0,0.3895864188671112,0.8555275797843933,0.0019531199941411614,19.15130043029785,-4.593259811401367,-27.437480926513672,0.0,518377.0
1.0,247.48719787597656,45.77605056762695,-18.914779663085938,-90.44358825683594,0.0,0.0,0.0,-0.0,0.3895864188671112,0.8555275797843933,0.0019531199941411614,19.15130043029785,-4.593259811401367,-27.437480926513672,0.0,518378.0
1.0,117.59999084472656,46.39097595214844,-21.2744140625,-48.02072525024414,0.0,0.0,0.0,-0.0,0.3895864188671112,0.8555275797843933,0.0019531199941411614,19.15130043029785,-4.593259811401367,-27.437480926513672,0.0,518379.0
1.0,-69.1254653930664,22.1282901763916,-7.461218357086182,14.534719467163086,0.0,0.0,0.0,-0.0,0.3895864188671112,0.8555275797843933,0.0019531199941411614,19.15130043029785,-4.593259811401367,-27.437480926513672,0.0,518380.0
1.0,-206.01597595214844,-13.608078002929688,19.710586547851562,68.78972625732422,0.0,0.0,0.0,-0.0,0.3895864188671112,0.8555275797843933,0.0019531199941411614,19.15130043029785,-4.593259811401367,-27.437480926513672,0.0,518381.0
1.0,-238.09173583984375,-42.129756927490234,46.33164978027344,93.63885498046875,0.0,0.0,0.0,-0.0,0.41265764832496643,0.9125953316688538,-0.007263164967298508,25.270559310913086,1.9685399532318115,-12.238519668579102,0.0,518382.0
1.0,-178.36529541015625,-49.05800247192383,49.242671966552734,75.42974853515625,0.0,0.0,0.0,-0.0,0.41265764832496643,0.9125953316688538,-0.007263164967298508,25.270559310913086,1.9685399532318115,-12.238519668579102,0.0,518383.0
1.0,-76.87715911865234,-31.29233741760254,19.419828414916992,20.605213165283203,0.0,0.0,-0.0,-0.0,0.41265764832496643,0.9125953316688538,-0.007263164967298508,25.270559310913086,1.9685399532318115,-12.238519668579102,0.0,518384.0
1.0,27.41581916809082,2.0408124923706055,-26.110694885253906,-43.72137451171875,0.0,0.0,-0.0,-0.0,0.41265764832496643,0.9125953316688538,-0.007263164967298508,25.270559310913086,1.9685399532318115,-12.238519668579102,0.0,518385.0
1.0,119.17919921875,34.31704330444336,-59.792606353759766,-87.06441497802734,0.0,0.0,-0.0,-0.0,0.41265764832496643,0.9125953316688538,-0.007263164967298508,25.270559310913086,1.9685399532318115,-12.238519668579102,0.0,518386.0
1.0,177.6381072998047,49.32168960571289,-62.765342712402344,-89.33018493652344,0.0,0.0,-0.0,-0.0,0.41265764832496643,0.9125953316688538,-0.007263164967298508,25.270559310913086,1.9685399532318115,-12.238519668579102,0.0,518387.0
1.0,167.58802795410156,39.36852264404297,-34.952274322509766,-50.23908996582031,0.0,0.0,-0.0,-0.0,0.41265764832496643,0.9125953316688538,-0.007263164967298508,25.270559310913086,1.9685399532318115,-12.238519668579102,0.0,518388.0
1.0,80.31743621826172,9.33879280090332,4.851959705352783,6.960864067077637,0.0,0.0,-0.0,-0.0,0.41265764832496643,0.9125953316688538,-0.007263164967298508,25.270559310913086,1.9685399532318115,-12.238519668579102,0.0,518389.0
1.0,-36.652610778808594,-25.439062118530273,32.263221740722656,50.846046447753906,0.0,0.0,-0.0,-0.0,0.41265764832496643,0.9125953316688538,-0.007263164967298508,25.270559310913086,1.9685399532318115,-12.238519668579102,0.0,518390.0
1.0,-111.82904815673828,-46.537696838378906,33.26436996459961,61.4979248046875,0.0,0.0,-0.0,-0.0,0.41265764832496643,0.9125953316688538,-0.007263164967298508,25.270559310913086,1.9685399532318115,-12.238519668579102,0.0,518391.0
1.0,-110.15019226074219,-42.44548416137695,14.080368995666504,38.35579299926758,0.0,0.0,-0.0,-0.0,0.41509902477264404,0.9803441762924194,-0.015930134803056717,5.859839916229248,3.021480083465576,3.8607800006866455,0.0,518392.0
1.0,-57.64685821533203,-15.418341636657715,2.0933380126953125,1.12639582157135,0.0,0.0,-0.0,-0.0,0.41509902477264404,0.9803441762924194,-0.015930134803056717,5.859839916229248,3.021480083465576,3.8607800006866455,0.0,518393.0
1.0,-4.3182878494262695,19.485166549682617,18.06909942626953,-22.06496810913086,0.0,0.0,-0.0,-0.0,0.41509902477264404,0.9803441762924194,-0.015930134803056717,5.859839916229248,3.021480083465576,3.8607800006866455,0.0,518394.0
1.0,25.820730209350586,42.72241973876953,44.19834899902344,-18.060731887817383,0.0,0.0,-0.0,-0.0,0.41509902477264404,0.9803441762924194,-0.015930134803056717,5.859839916229248,3.021480083465576,3.8607800006866455,0.0,518395.0
1.0,34.828765869140625,41.6879997253418,45.46097946166992,3.1034350395202637,0.0,0.0,-0.0,-0.0,0.41509902477264404,0.9803441762924194,-0.015930134803056717,5.859839916229248,3.021480083465576,3.8607800006866455,0.0,518396.0
1.0,25.57329559326172,17.675580978393555,15.847574234008789,21.123075485229492,0.0,0.0,-0.0,-0.0,0.41509902477264404,0.9803441762924194,-0.015930134803056717,5.859839916229248,3.021480083465576,3.8607800006866455,0.0,518397.0
1.0,3.913083553314209,-15.69296932220459,-18.15196990966797,21.186445236206055,0.0,0.0,-0.0,-0.0,0.41509902477264404,0.9803441762924194,-0.015930134803056717,5.859839916229248,3.021480083465576,3.8607800006866455,0.0,518398.0
1.0,-11.457514762878418,-39.902767181396484,-33.24723434448242,4.880969047546387,0.0,0.0,-0.0,-0.0,0.41509902477264404,0.9803441762924194,-0.015930134803056717,5.859839916229248,3.021480083465576,3.8607800006866455,0.0,518399.0
1.0,-4.888574123382568,-41.438026428222656,-33.11553192138672,-13.786160469055176,0.0,0.0,-0.0,-0.0,0.41509902477264404,0.9803441762924194,-0.015930134803056717,5.859839916229248,3.021480083465576,3.8607800006866455,0.0,518400.0
1.0,16.57192611694336,-19.56915283203125,-35.23924255371094,-25.813371658325195,0.0,0.0,-0.0,-0.0,0.41509902477264404,0.9803441762924194,-0.015930134803056717,5.859839916229248,3.021480083465576,3.8607800006866455,0.0,518401.0
1.0,28.604318618774414,13.219537734985352,-43.96998977661133,-29.688806533813477,0.0,0.0,-0.0,-0.0,0.3942860960960388,0.9466528296470642,0.0032958900555968285,-9.445940017700195,-2.487380027770996,-1.9685399532318115,0.0,518402.0
1.0,17.065534591674805,38.544456481933594,-44.06840515136719,-21.106836318969727,0.0,0.0,-0.0,-0.0,0.3942860960960388,0.9466528296470642,0.0032958900555968285,-9.445940017700195,-2.487380027770996,-1.9685399532318115,0.0,518403.0
1.0,-1.8046512603759766,42.90038299560547,-22.030200958251953,1.751455307006836,0.0,0.0,-0.0,-0.0,0.3942860960960388,0.9466528296470642,0.0032958900555968285,-9.445940017700195,-2.487380027770996,-1.9685399532318115,0.0,518404.0
1.0,-4.662135124206543,24.582691192626953,10.703180313110352,25.94243812561035,0.0,0.0,-0.0,-0.0,0.3942860960960388,0.9466528296470642,0.0032958900555968285,-9.445940017700195,-2.487380027770996,-1.9685399532318115,0.0,518405.0
1.0,-1.387981653213501,-7.096885681152344,28.349411010742188,30.910749435424805,0.0,0.0,-0.0,-0.0,0.3942860960960388,0.9466528296470642,0.0032958900555968285,-9.445940017700195,-2.487380027770996,-1.9685399532318115,0.0,518406.0
1.0,-21.71747589111328,-36.312721252441406,27.244352340698242,11.675527572631836,0.0,0.0,-0.0,-0.0,0.3942860960960388,0.9466528296470642,0.0032958900555968285,-9.445940017700195,-2.487380027770996,-1.9685399532318115,0.0,518407.0
1.0,-68.32678985595703,-47.44388961791992,29.496904373168945,-11.87981128692627,0.0,0.0,-0.0,-0.0,0.3942860960960388,0.9466528296470642,0.0032958900555968285,-9.445940017700195,-2.487380027770996,-1.9685399532318115,0.0,518408.0
1.0,-96.93844604492188,-33.67827224731445,41.11391830444336,-19.93625259399414,0.0,0.0,-0.0,-0.0,0.3942860960960388,0.9466528296470642,0.0032958900555968285,-9.445940017700195,-2.487380027770996,-1.9685399532318115,0.0,518409.0
1.0,-41.37016296386719,-1.3193185329437256,39.08745574951172,-19.28046226501465,0.0,0.0,-0.0,-0.0,0.3942860960960388,0.9466528296470642,0.0032958900555968285,-9.445940017700195,-2.487380027770996,-1.9685399532318115,0.0,518410.0
1.0,100.89006805419922,32.90919876098633,16.56882667541504,-24.08071517944336,0.0,0.0,-0.0,0.0,0.3942860960960388,0.9466528296470642,0.0032958900555968285,-9.445940017700195,-2.487380027770996,-1.9685399532318115,0.0,518411.0
1.0,219.37979125976562,49.981689453125,-3.758626699447632,-24.687631607055664,0.0,0.0,-0.0,0.0,0.3797597587108612,0.9056373238563538,0.01348873507231474,13.718740463256836,-1.495479941368103,-0.3052000105381012,0.0,518412.0
1.0,195.03285217285156,39.66495895385742,-15.213889122009277,-3.624224901199341,0.0,0.0,-0.0,0.0,0.3797597587108612,0.9056373238563538,0.01348873507231474,13.718740463256836,-1.495479941368103,-0.3052000105381012,0.0,518413.0
1.0,27.754146575927734,7.310738563537598,-29.73194694519043,34.738502502441406,0.0,0.0,-0.0,0.0,0.3797597587108612,0.9056373238563538,0.01348873507231474,13.718740463256836,-1.495479941368103,-0.3052000105381012,0.0,518414.0
1.0,-174.27166748046875,-28.955150604248047,-35.43836212158203,69.45600128173828,0.0,0.0,-0.0,0.0,0.3797597587108612,0.9056373238563538,0.01348873507231474,13.718740463256836,-1.495479941368103,-0.3052000105381012,0.0,518415.0
1.0,-286.0697937011719,-48.593971252441406,-10.233760833740234,75.78374481201172,0.0,0.0,-0.0,0.0,0.3797597587108612,0.9056373238563538,0.01348873507231474,13.718740463256836,-1.495479941368103,-0.3052000105381012,0.0,518416.0
1.0,-241.61978149414062,-40.75637435913086,29.596939086914062,35.383731842041016,0.0,0.0,-0.0,0.0,0.3797597587108612,0.9056373238563538,0.01348873507231474,13.718740463256836,-1.495479941368103,-0.3052000105381012,0.0,518417.0
1.0,-69.04627990722656,-10.357156753540039,39.28867721557617,-39.406925201416016,0.0,0.0,-0.0,0.0,0.3797597587108612,0.9056373238563538,0.01348873507231474,13.718740463256836,-1.495479941368103,-0.3052000105381012,0.0,518418.0
1.0,129.33685302734375,25.41996955871582,1.2431870698928833,-102.21925354003906,0.0,0.0,-0.0,0.0,0.3797597587108612,0.9056373238563538,0.01348873507231474,13.718740463256836,-1.495479941368103,-0.3052000105381012,0.0,518419.0
1.0,245.67367553710938,46.90337371826172,-52.648719787597656,-109.04911804199219,0.0,0.0,-0.0,0.0,0.3797597587108612,0.9056373238563538,0.01348873507231474,13.718740463256836,-1.495479941368103,-0.3052000105381012,0.0,518420.0
1.0,232.4318084716797,42.76761245727539,-74.71307373046875,-55.10575866699219,0.0,0.0,-0.0,0.0,0.3797597587108612,0.9056373238563538,0.01348873507231474,13.718740463256836,-1.495479941368103,-0.3052000105381012,0.0,518421.0
1.0,117.04573059082031,15.77795124053955,-45.90592575073242,25.758922576904297,0.0,0.0,-0.0,0.0,0.3891591727733612,0.9002051949501038,-0.002624504966661334,23.378320693969727,3.9523398876190186,-2.044840097427368,0.0,518422.0
1.0,-29.092134475708008,-19.471887588500977,14.426535606384277,92.10062408447266,0.0,0.0,-0.0,0.0,0.3891591727733612,0.9002051949501038,-0.002624504966661334,23.378320693969727,3.9523398876190186,-2.044840097427368,0.0,518423.0
1.0,-134.33370971679688,-44.253658294677734,67.49405670166016,115.61598205566406,0.0,0.0,-0.0,0.0,0.3891591727733612,0.9002051949501038,-0.002624504966661334,23.378320693969727,3.9523398876190186,-2.044840097427368,0.0,518424.0
1.0,-161.00454711914062,-45.66987991333008,76.2223892211914,83.47435760498047,0.0,0.0,-0.0,0.0,0.3891591727733612,0.9002051949501038,-0.002624504966661334,23.378320693969727,3.9523398876190186,-2.044840097427368,0.0,518425.0
1.0,-117.89505004882812,-23.769466400146484,27.0736083984375,7.466742992401123,0.0,0.0,-0.0,0.0,0.3891591727733612,0.9002051949501038,-0.002624504966661334,23.378320693969727,3.9523398876190186,-2.044840097427368,0.0,518426.0
1.0,-44.94878387451172,9.137374877929688,-50.41271209716797,-70.54041290283203,0.0,0.0,-0.0,0.0,0.3891591727733612,0.9002051949501038,-0.002624504966661334,23.378320693969727,3.9523398876190186,-2.044840097427368,0.0,518427.0
1.0,18.60697364807129,35.50444412231445,-94.75414276123047,-105.11167907714844,0.0,0.0,-0.0,0.0,0.3891591727733612,0.9002051949501038,-0.002624504966661334,23.378320693969727,3.9523398876190186,-2.044840097427368,0.0,518428.0
1.0,53.859336853027344,42.041629791259766,-61.05801010131836,-83.81822967529297,0.0,0.0,-0.0,0.0,0.3891591727733612,0.9002051949501038,-0.002624504966661334,23.378320693969727,3.9523398876190186,-2.044840097427368,0.0,518429.0
1.0,61.52727127075195,26.67001724243164,37.041358947753906,-29.34836769104004,0.0,0.0,-0.0,0.0,0.3891591727733612,0.9002051949501038,-0.002624504966661334,23.378320693969727,3.9523398876190186,-2.044840097427368,0.0,518430.0
1.0,54.640594482421875,-1.6437897682189941,132.02484130859375,27.43909454345703,0.0,0.0,-0.0,0.0,0.3891591727733612,0.9002051949501038,-0.002624504966661334,23.378320693969727,3.9523398876190186,-2.044840097427368,0.0,518431.0
1.0,45.219017028808594,-28.118297576904297,151.01976013183594,64.4927749633789,0.0,0.0,-0.0,0.0,0.3963002562522888,0.941464900970459,-0.014587365090847015,-0.0763000026345253,5.127359867095947,2.2584800720214844,0.0,518432.0
1.0,31.961000442504883,-38.975914001464844,73.71048736572266,69.943115234375,0.0,0.0,-0.0,0.0,0.3963002562522888,0.941464900970459,-0.014587365090847015,-0.0763000026345253,5.127359867095947,2.2584800720214844,0.0,518433.0
1.0,10.038714408874512,-28.147716522216797,-49.04952621459961,46.20048522949219,0.0,0.0,-0.0,0.0,0.3963002562522888,0.941464900970459,-0.014587365090847015,-0.0763000026345253,5.127359867095947,2.2584800720214844,0.0,518434.0
1.0,-10.436429977416992,-0.752729594707489,-136.8544464111328,9.63913345336914,0.0,0.0,-0.0,0.0,0.3963002562522888,0.941464900970459,-0.014587365090847015,-0.0763000026345253,5.127359867095947,2.2584800720214844,0.0,518435.0
1.0,-15.272671699523926,28.525148391723633,-143.21900939941406,-23.8236083984375,0.0,0.0,-0.0,0.0,0.3963002562522888,0.941464900970459,-0.014587365090847015,-0.0763000026345253,5.127359867095947,2.2584800720214844,0.0,518436.0
1.0,-12.581612586975098,42.75486373901367,-81.99554443359375,-47.02254867553711,0.0,0.0,-0.0,0.0,0.3963002562522888,0.941464900970459,-0.014587365090847015,-0.0763000026345253,5.127359867095947,2.2584800720214844,0.0,518437.0
1.0,-23.841257095336914,33.15233612060547,-2.793851137161255,-52.730892181396484,0.0,0.0,-0.0,0.0,0.3963002562522888,0.941464900970459,-0.014587365090847015,-0.0763000026345253,5.127359867095947,2.2584800720214844,0.0,518438.0
1.0,-48.03130340576172,4.672441482543945,52.1921272277832,-32.075931549072266,0.0,0.0,-0.0,0.0,0.3963002562522888,0.941464900970459,-0.014587365090847015,-0.0763000026345253,5.127359867095947,2.2584800720214844,0.0,518439.0
1.0,-58.19603729248047,-27.152484893798828,70.8255615234375,8.264281272888184,0.0,0.0,-0.0,0.0,0.3963002562522888,0.941464900970459,-0.014587365090847015,-0.0763000026345253,5.127359867095947,2.2584800720214844,0.0,518440.0
1.0,-37.847320556640625,-44.90238952636719,58.819026947021484,41.2472038269043,0.0,0.0,-0.0,0.0,0.3963002562522888,0.941464900970459,-0.014587365090847015,-0.0763000026345253,5.127359867095947,2.2584800720214844,0.0,518441.0
1.0,-0.7975261211395264,-38.77284622192383,21.67157745361328,43.5145149230957,0.0,0.0,-0.0,0.0,0.3987416625022888,0.9465917944908142,-0.012634244747459888,-22.508499145507812,2.7315399646759033,1.3428800106048584,0.0,518442.0
1.0,26.180700302124023,-11.835195541381836,-25.199129104614258,17.886764526367188,0.0,0.0,-0.0,0.0,0.3987416625022888,0.9465917944908142,-0.012634244747459888,-22.508499145507812,2.7315399646759033,1.3428800106048584,0.0,518443.0
1.0,24.295974731445312,21.545724868774414,-46.223594665527344,-11.291152954101562,0.0,0.0,-0.0,0.0,0.3987416625022888,0.9465917944908142,-0.012634244747459888,-22.508499145507812,2.7315399646759033,1.3428800106048584,0.0,518444.0
1.0,1.6088472604751587,43.2464714050293,-18.969318389892578,-23.79712677001953,0.0,0.0,-0.0,0.0,0.3987416625022888,0.9465917944908142,-0.012634244747459888,-22.508499145507812,2.7315399646759033,1.3428800106048584,0.0,518445.0
1.0,0.9568333029747009,41.908287048339844,32.146541595458984,-22.719655990600586,0.0,0.0,-0.0,0.0,0.3987416625022888,0.9465917944908142,-0.012634244747459888,-22.508499145507812,2.7315399646759033,1.3428800106048584,0.0,518446.0
1.0,54.603668212890625,19.006694793701172,58.35538864135742,-19.544681549072266,0.0,0.0,-0.0,0.0,0.3987416625022888,0.9465917944908142,-0.012634244747459888,-22.508499145507812,2.7315399646759033,1.3428800106048584,0.0,518447.0
1.0,126.12351989746094,-13.326519966125488,36.43557357788086,-7.864802837371826,0.0,0.0,-0.0,0.0,0.3987416625022888,0.9465917944908142,-0.012634244747459888,-22.508499145507812,2.7315399646759033,1.3428800106048584,0.0,518448.0
1.0,136.27098083496094,-38.40615463256836,-11.898090362548828,21.666078567504883,0.0,0.0,-0.0,0.0,0.3987416625022888,0.9465917944908142,-0.012634244747459888,-22.508499145507812,2.7315399646759033,1.3428800106048584,0.0,518449.0
1.0,51.2724723815918,-42.85945129394531,-47.74214553833008,47.748111724853516,0.0,0.0,-0.0,0.0,0.3987416625022888,0.9465917944908142,-0.012634244747459888,-22.508499145507812,2.7315399646759033,1.3428800106048584,0.0,518450.0
1.0,-81.34662628173828,-24.24123191833496,-51.2518310546875,36.53163146972656,0.0,0.0,-0.0,0.0,0.3987416625022888,0.9465917944908142,-0.012634244747459888,-22.508499145507812,2.7315399646759033,1.3428800106048584,0.0,518451.0
1.0,-181.96905517578125,7.09012508392334,-27.23160743713379,-9.87099552154541,0.0,0.0,-0.0,0.0,0.3919667601585388,0.9049659371376038,0.0012206999817863107,-12.757360458374023,-0.5493599772453308,-6.439720153808594,0.0,518452.0
1.0,-199.46556091308594,33.77235412597656,11.01896858215332,-52.780982971191406,0.0,0.0,-0.0,0.0,0.3919667601585388,0.9049659371376038,0.0012206999817863107,-12.757360458374023,-0.5493599772453308,-6.439720153808594,0.0,518453.0
1.0,-133.22377014160156,41.5798454284668,49.44144821166992,-59.02726364135742,0.0,0.0,-0.0,0.0,0.3919667601585388,0.9049659371376038,0.0012206999817863107,-12.757360458374023,-0.5493599772453308,-6.439720153808594,0.0,518454.0
1.0,-28.467735290527344,26.91037368774414,66.8855209350586,-26.324316024780273,0.0,0.0,-0.0,0.0,0.3919667601585388,0.9049659371376038,0.0012206999817863107,-12.757360458374023,-0.5493599772453308,-6.439720153808594,0.0,518455.0
1.0,57.8343620300293,-2.4644734859466553,40.968528747558594,22.067306518554688,0.0,0.0,-0.0,0.0,0.3919667601585388,0.9049659371376038,0.0012206999817863107,-12.757360458374023,-0.5493599772453308,-6.439720153808594,0.0,518456.0
1.0,105.12696075439453,-30.814350128173828,-21.21516227722168,58.62440872192383,0.0,0.0,-0.0,0.0,0.3919667601585388,0.9049659371376038,0.0012206999817863107,-12.757360458374023,-0.5493599772453308,-6.439720153808594,0.0,518457.0
1.0,126.50311279296875,-41.7263069152832,-71.3388442993164,68.58383178710938,0.0,0.0,-0.0,0.0,0.3919667601585388,0.9049659371376038,0.0012206999817863107,-12.757360458374023,-0.5493599772453308,-6.439720153808594,0.0,518458.0
1.0,128.56051635742188,-28.387033462524414,-68.08893585205078,44.88438034057617,0.0,0.0,-0.0,0.0,0.3919667601585388,0.9049659371376038,0.0012206999817863107,-12.757360458374023,-0.5493599772453308,-6.439720153808594,0.0,518459.0
1.0,102.19042205810547,1.4167975187301636,-26.0441951751709,-11.824048042297363,0.0,0.0,-0.0,0.0,0.3919667601585388,0.9049659371376038,0.0012206999817863107,-12.757360458374023,-0.5493599772453308,-6.439720153808594,0.0,518460.0
1.0,36.17546844482422,30.000837326049805,6.9689531326293945,-73.6319580078125,0.0,0.0,-0.0,0.0,0.3919667601585388,0.9049659371376038,0.0012206999817863107,-12.757360458374023,-0.5493599772453308,-6.439720153808594,0.0,518461.0
1.0,-58.92186737060547,40.65990447998047,5.448941230773926,-93.48983764648438,0.0,0.0,-0.0,0.0,0.3867177665233612,0.8800026178359985,0.005310045089572668,8.972880363464355,0.6714400053024292,-9.99530029296875,0.0,518462.0
1.0,-125.39295959472656,28.13504409790039,-15.81257152557373,-51.79814910888672,0.0,0.0,-0.0,0.0,0.3867177665233612,0.8800026178359985,0.005310045089572668,8.972880363464355,0.6714400053024292,-9.99530029296875,0.0,518463.0
1.0,-103.92765808105469,0.6366050243377686,-20.5866756439209,18.69741439819336,0.0,0.0,0.0,0.0,0.3867177665233612,0.8800026178359985,0.005310045089572668,8.972880363464355,0.6714400053024292,-9.99530029296875,0.0,518464.0
1.0,-20.417848587036133,-26.867116928100586,18.532987594604492,66.1049575805664,0.0,0.0,0.0,0.0,0.3867177665233612,0.8800026178359985,0.005310045089572668,8.972880363464355,0.6714400053024292,-9.99530029296875,0.0,518465.0
1.0,37.36880874633789,-40.52863693237305,85.33331298828125,65.02605438232422,0.0,0.0,0.0,0.0,0.3867177665233612,0.8800026178359985,0.005310045089572668,8.972880363464355,0.6714400053024292,-9.99530029296875,0.0,518466.0
1.0,30.473356246948242,-33.21327590942383,120.3426742553711,24.752378463745117,0.0,0.0,0.0,0.0,0.3867177665233612,0.8800026178359985,0.005310045089572668,8.972880363464355,0.6714400053024292,-9.99530029296875,0.0,518467.0
1.0,-4.749980449676514,-7.893141269683838,79.2280502319336,-24.91643714904785,0.0,0.0,0.0,0.0,0.3867177665233612,0.8800026178359985,0.005310045089572668,8.972880363464355,0.6714400053024292,-9.99530029296875,0.0,518468.0
1.0,-22.952674865722656,22.674640655517578,-17.262264251708984,-50.694190979003906,0.0,0.0,0.0,0.0,0.3867177665233612,0.8800026178359985,0.005310045089572668,8.972880363464355,0.6714400053024292,-9.99530029296875,0.0,518469.0
1.0,-14.529919624328613,41.811737060546875,-101.61431121826172,-35.20295715332031,0.0,0.0,0.0,0.0,0.3867177665233612,0.8800026178359985,0.005310045089572668,8.972880363464355,0.6714400053024292,-9.99530029296875,0.0,518470.0
1.0,1.0901061296463013,38.72840118408203,-117.53495788574219,13.78900146484375,0.0,0.0,0.0,0.0,0.3867177665233612,0.8800026178359985,0.005310045089572668,8.972880363464355,0.6714400053024292,-9.99530029296875,0.0,518471.0
1.0,4.241579532623291,15.076780319213867,-60.00714111328125,68.7343978881836,0.0,0.0,0.0,0.0,0.3995351195335388,0.9022803902626038,-0.0021972600370645523,7.126420021057129,3.998120069503784,-8.408260345458984,0.0,518472.0
1.0,-0.7547681927680969,-16.57564926147461,23.794797897338867,93.05225372314453,0.0,0.0,0.0,0.0,0.3995351195335388,0.9022803902626038,-0.0021972600370645523,7.126420021057129,3.998120069503784,-8.408260345458984,0.0,518473.0
1.0,3.8633806705474854,-39.803199768066406,66.450927734375,58.575904846191406,0.0,0.0,0.0,0.0,0.3995351195335388,0.9022803902626038,-0.0021972600370645523,7.126420021057129,3.998120069503784,-8.408260345458984,0.0,518474.0
1.0,18.202774047851562,-42.72203063964844,31.251293182373047,-29.296586990356445,0.0,0.0,0.0,0.0,0.3995351195335388,0.9022803902626038,-0.0021972600370645523,7.126420021057129,3.998120069503784,-8.408260345458984,0.0,518475.0
1.0,25.30522918701172,-23.529521942138672,-51.3015251159668,-122.64614868164062,0.0,0.0,0.0,0.0,0.3995351195335388,0.9022803902626038,-0.0021972600370645523,7.126420021057129,3.998120069503784,-8.408260345458984,0.0,518476.0
1.0,18.38905906677246,8.724262237548828,-103.3245620727539,-161.17636108398438,0.0,0.0,0.0,0.0,0.3995351195335388,0.9022803902626038,-0.0021972600370645523,7.126420021057129,3.998120069503784,-8.408260345458984,0.0,518477.0
1.0,5.649491786956787,37.39253616333008,-69.60150146484375,-116.4170150756836,0.0,0.0,0.0,0.0,0.3995351195335388,0.9022803902626038,-0.0021972600370645523,7.126420021057129,3.998120069503784,-8.408260345458984,0.0,518478.0
1.0,-6.876461505889893,46.44101333618164,30.195844650268555,-9.28623104095459,0.0,0.0,0.0,0.0,0.3995351195335388,0.9022803902626038,-0.0021972600370645523,7.126420021057129,3.998120069503784,-8.408260345458984,0.0,518479.0
1.0,-21.6873779296875,30.27828598022461,123.12744140625,103.62454223632812,0.0,0.0,0.0,0.0,0.3995351195335388,0.9022803902626038,-0.0021972600370645523,7.126420021057129,3.998120069503784,-8.408260345458984,0.0,518480.0
1.0,-36.753662109375,-2.500491142272949,150.15821838378906,163.48245239257812,0.0,0.0,0.0,0.0,0.3995351195335388,0.9022803902626038,-0.0021972600370645523,7.126420021057129,3.998120069503784,-8.408260345458984,0.0,518481.0
1.0,-36.12367630004883,-33.668609619140625,104.9543228149414,145.36239624023438,0.0,0.0,0.0,0.0,0.40472307801246643,0.9436010718345642,-0.010559055022895336,-2.1669199466705322,4.165979862213135,-0.244159996509552,0.0,518482.0
1.0,-12.914917945861816,-45.864646911621094,20.083280563354492,69.3957290649414,0.0,0.0,0.0,0.0,0.40472307801246643,0.9436010718345642,-0.010559055022895336,-2.1669199466705322,4.165979862213135,-0.244159996509552,0.0,518483.0
1.0,17.193031311035156,-32.84489440917969,-66.32776641845703,-22.60961151123047,0.0,0.0,0.0,0.0,0.40472307801246643,0.9436010718345642,-0.010559055022895336,-2.1669199466705322,4.165979862213135,-0.244159996509552,0.0,518484.0
1.0,44.32674789428711,-2.0858120918273926,-127.17073059082031,-94.66606903076172,0.0,0.0,0.0,0.0,0.40472307801246643,0.9436010718345642,-0.010559055022895336,-2.1669199466705322,4.165979862213135,-0.244159996509552,0.0,518485.0
1.0,67.00293731689453,29.78196144104004,-142.2773895263672,-121.11946868896484,0.0,0.0,0.0,0.0,0.40472307801246643,0.9436010718345642,-0.010559055022895336,-2.1669199466705322,4.165979862213135,-0.244159996509552,0.0,518486.0
1.0,68.73773956298828,45.382747650146484,-100.88725280761719,-90.72521209716797,0.0,0.0,0.0,0.0,0.40472307801246643,0.9436010718345642,-0.010559055022895336,-2.1669199466705322,4.165979862213135,-0.244159996509552,0.0,518487.0
1.0,37.835758209228516,36.301998138427734,-16.461944580078125,-21.90869140625,0.0,0.0,0.0,0.0,0.40472307801246643,0.9436010718345642,-0.010559055022895336,-2.1669199466705322,4.165979862213135,-0.244159996509552,0.0,518488.0
1.0,-7.928206920623779,7.569545745849609,74.82382202148438,44.81178283691406,0.0,0.0,0.0,0.0,0.40472307801246643,0.9436010718345642,-0.010559055022895336,-2.1669199466705322,4.165979862213135,-0.244159996509552,0.0,518489.0
1.0,-45.65074157714844,-25.73577117919922,134.8736114501953,77.76652526855469,0.0,0.0,0.0,0.0,0.40472307801246643,0.9436010718345642,-0.010559055022895336,-2.1669199466705322,4.165979862213135,-0.244159996509552,0.0,518490.0
1.0,-71.64768981933594,-46.04049301147461,138.3839111328125,69.25821685791016,0.0,0.0,0.0,0.0,0.40472307801246643,0.9436010718345642,-0.010559055022895336,-2.1669199466705322,4.165979862213135,-0.244159996509552,0.0,518491.0
1.0,-90.11480712890625,-42.239620208740234,82.34194946289062,29.888412475585938,0.0,0.0,0.0,0.0,0.3955067992210388,0.933103084564209,0.006530744954943657,-15.04636001586914,-1.434440016746521,-3.8302600383758545,0.0,518492.0
1.0,-94.14588928222656,-16.046255111694336,-7.471256732940674,-19.699779510498047,0.0,0.0,0.0,-0.0,0.3955067992210388,0.933103084564209,0.006530744954943657,-15.04636001586914,-1.434440016746521,-3.8302600383758545,0.0,518493.0
1.0,-63.866920471191406,18.66621208190918,-91.9804458618164,-57.65053939819336,0.0,0.0,0.0,-0.0,0.3955067992210388,0.933103084564209,0.006530744954943657,-15.04636001586914,-1.434440016746521,-3.8302600383758545,0.0,518494.0
1.0,9.578575134277344,43.46822738647461,-137.27340698242188,-68.56761169433594,0.0,0.0,0.0,-0.0,0.3955067992210388,0.933103084564209,0.006530744954943657,-15.04636001586914,-1.434440016746521,-3.8302600383758545,0.0,518495.0
1.0,98.58929443359375,45.813385009765625,-118.64739227294922,-47.6003303527832,0.0,0.0,0.0,-0.0,0.3955067992210388,0.933103084564209,0.006530744954943657,-15.04636001586914,-1.434440016746521,-3.8302600383758545,0.0,518496.0
1.0,151.13357543945312,25.22831916809082,-38.367095947265625,-3.604743480682373,0.0,0.0,0.0,-0.0,0.3955067992210388,0.933103084564209,0.006530744954943657,-15.04636001586914,-1.434440016746521,-3.8302600383758545,0.0,518497.0
1.0,130.5581512451172,-7.6641845703125,58.47970962524414,43.49188995361328,0.0,0.0,0.0,-0.0,0.3955067992210388,0.933103084564209,0.006530744954943657,-15.04636001586914,-1.434440016746521,-3.8302600383758545,0.0,518498.0
1.0,44.99636459350586,-36.136375427246094,111.3043441772461,73.26602172851562,0.0,0.0,0.0,-0.0,0.3955067992210388,0.933103084564209,0.006530744954943657,-15.04636001586914,-1.434440016746521,-3.8302600383758545,0.0,518499.0
1.0,-59.39570236206055,-45.05117416381836,94.54563903808594,73.60294342041016,0.0,0.0,0.0,-0.0,0.3955067992210388,0.933103084564209,0.006530744954943657,-15.04636001586914,-1.434440016746521,-3.8302600383758545,0.0,518500.0
1.0,-131.26573181152344,-29.37327003479004,34.7147216796875,42.632240295410156,0.0,0.0,0.0,-0.0,0.3955067992210388,0.933103084564209,0.006530744954943657,-15.04636001586914,-1.434440016746521,-3.8302600383758545,0.0,518501.0
1.0,-134.65623474121094,2.2480380535125732,-23.480133056640625,-9.929962158203125,0.0,0.0,0.0,-0.0,0.3786000907421112,0.8961769342422485,0.025756770744919777,-2.365299940109253,-4.990019798278809,-9.857959747314453,0.0,518502.0
1.0,-61.42034912109375,31.92438316345215,-51.911346435546875,-60.62588119506836,0.0,0.0,0.0,-0.0,0.3786000907421112,0.8961769342422485,0.025756770744919777,-2.365299940109253,-4.990019798278809,-9.857959747314453,0.0,518503.0
1.0,48.386688232421875,42.7953987121582,-46.438514709472656,-82.94023895263672,0.0,0.0,0.0,-0.0,0.3786000907421112,0.8961769342422485,0.025756770744919777,-2.365299940109253,-4.990019798278809,-9.857959747314453,0.0,518504.0
1.0,120.6545181274414,28.87726593017578,-23.096914291381836,-67.18415832519531,0.0,0.0,0.0,-0.0,0.3786000907421112,0.8961769342422485,0.025756770744919777,-2.365299940109253,-4.990019798278809,-9.857959747314453,0.0,518505.0
1.0,107.05393981933594,-1.8830314874649048,-1.560436487197876,-23.239065170288086,0.0,0.0,0.0,-0.0,0.3786000907421112,0.8961769342422485,0.025756770744919777,-2.365299940109253,-4.990019798278809,-9.857959747314453,0.0,518506.0
1.0,22.589778900146484,-32.18113708496094,11.696194648742676,28.150035858154297,0.0,0.0,0.0,-0.0,0.3786000907421112,0.8961769342422485,0.025756770744919777,-2.365299940109253,-4.990019798278809,-9.857959747314453,0.0,518507.0
1.0,-71.36498260498047,-44.66017532348633,19.02037239074707,61.902774810791016,0.0,0.0,0.0,-0.0,0.3786000907421112,0.8961769342422485,0.025756770744919777,-2.365299940109253,-4.990019798278809,-9.857959747314453,0.0,518508.0
1.0,-112.76158905029297,-31.776376724243164,19.104917526245117,62.42225646972656,0.0,0.0,0.0,-0.0,0.3786000907421112,0.8961769342422485,0.025756770744919777,-2.365299940109253,-4.990019798278809,-9.857959747314453,0.0,518509.0
1.0,-83.0493392944336,-0.5165926218032837,6.233144283294678,32.259178161621094,0.0,0.0,0.0,-0.0,0.3786000907421112,0.8961769342422485,0.025756770744919777,-2.365299940109253,-4.990019798278809,-9.857959747314453,0.0,518510.0
1.0,-8.968900680541992,31.331937789916992,-19.483572006225586,-13.728157997131348,0.0,0.0,0.0,-0.0,0.3786000907421112,0.8961769342422485,0.025756770744919777,-2.365299940109253,-4.990019798278809,-9.857959747314453,0.0,518511.0
1.0,71.1017837524414,45.65974426269531,-43.55183410644531,-52.65772247314453,0.0,0.0,0.0,-0.0,0.3925771117210388,0.8956886529922485,0.017028765752911568,15.458379745483398,2.685760021209717,-4.852680206298828,0.0,518512.0
1.0,120.55504608154297,34.75957489013672,-43.69936752319336,-59.7734260559082,0.0,0.0,0.0,-0.0,0.3925771117210388,0.8956886529922485,0.017028765752911568,15.458379745483398,2.685760021209717,-4.852680206298828,0.0,518513.0
1.0,109.06048583984375,5.026176452636719,-10.301070213317871,-24.154592514038086,0.0,0.0,0.0,-0.0,0.3925771117210388,0.8956886529922485,0.017028765752911568,15.458379745483398,2.685760021209717,-4.852680206298828,0.0,518514.0
1.0,37.63999938964844,-27.429357528686523,40.013755798339844,37.61406707763672,0.0,0.0,0.0,-0.0,0.3925771117210388,0.8956886529922485,0.017028765752911568,15.458379745483398,2.685760021209717,-4.852680206298828,0.0,518515.0
1.0,-54.521060943603516,-45.52914810180664,72.06086730957031,84.09789276123047,0.0,0.0,0.0,-0.0,0.3925771117210388,0.8956886529922485,0.017028765752911568,15.458379745483398,2.685760021209717,-4.852680206298828,0.0,518516.0
1.0,-118.66303253173828,-39.99964904785156,58.22301483154297,75.77139282226562,0.0,0.0,0.0,-0.0,0.3925771117210388,0.8956886529922485,0.017028765752911568,15.458379745483398,2.685760021209717,-4.852680206298828,0.0,518517.0
1.0,-122.98139953613281,-13.679693222045898,3.5143961906433105,9.586018562316895,0.0,0.0,0.0,-0.0,0.3925771117210388,0.8956886529922485,0.017028765752911568,15.458379745483398,2.685760021209717,-4.852680206298828,0.0,518518.0
1.0,-67.21370697021484,20.012924194335938,-54.541446685791016,-70.36133575439453,0.0,0.0,0.0,-0.0,0.3925771117210388,0.8956886529922485,0.017028765752911568,15.458379745483398,2.685760021209717,-4.852680206298828,0.0,518519.0
1.0,15.476988792419434,43.400726318359375,-73.69154357910156,-103.96436309814453,0.0,0.0,0.0,-0.0,0.3925771117210388,0.8956886529922485,0.017028765752911568,15.458379745483398,2.685760021209717,-4.852680206298828,0.0,518520.0
1.0,84.01533508300781,44.21485137939453,-38.08731460571289,-66.34173583984375,0.0,0.0,0.0,-0.0,0.3925771117210388,0.8956886529922485,0.017028765752911568,15.458379745483398,2.685760021209717,-4.852680206298828,0.0,518521.0
1.0,108.7484359741211,22.372190475463867,31.783700942993164,12.655306816101074,0.0,0.0,0.0,-0.0,0.3947743773460388,0.927121639251709,-0.0022582949604839087,10.422579765319824,3.372459888458252,-2.4721200466156006,0.0,518522.0
1.0,73.91095733642578,-10.91564655303955,89.61624145507812,74.04670715332031,0.0,0.0,0.0,-0.0,0.3947743773460388,0.927121639251709,-0.0022582949604839087,10.422579765319824,3.372459888458252,-2.4721200466156006,0.0,518523.0
1.0,1.3997814655303955,-38.46403121948242,91.5648422241211,76.74930572509766,0.0,0.0,0.0,-0.0,0.3947743773460388,0.927121639251709,-0.0022582949604839087,10.422579765319824,3.372459888458252,-2.4721200466156006,0.0,518524.0
1.0,-50.22956466674805,-45.12346649169922,32.546958923339844,33.14951705932617,0.0,0.0,0.0,-0.0,0.3947743773460388,0.927121639251709,-0.0022582949604839087,10.422579765319824,3.372459888458252,-2.4721200466156006,0.0,518525.0
1.0,-47.90979766845703,-26.86342430114746,-49.78082275390625,-12.228657722473145,0.0,0.0,0.0,-0.0,0.3947743773460388,0.927121639251709,-0.0022582949604839087,10.422579765319824,3.372459888458252,-2.4721200466156006,0.0,518526.0
1.0,-17.59646987915039,5.966375350952148,-108.77224731445312,-39.28763961791992,0.0,0.0,0.0,-0.0,0.3947743773460388,0.927121639251709,-0.0022582949604839087,10.422579765319824,3.372459888458252,-2.4721200466156006,0.0,518527.0
1.0,-2.5070137977600098,34.531463623046875,-116.84992980957031,-57.813358306884766,0.0,0.0,0.0,-0.0,0.3947743773460388,0.927121639251709,-0.0022582949604839087,10.422579765319824,3.372459888458252,-2.4721200466156006,0.0,518528.0
1.0,-15.731130599975586,42.985374450683594,-71.86412048339844,-65.14369201660156,0.0,0.0,0.0,-0.0,0.3947743773460388,0.927121639251709,-0.0022582949604839087,10.422579765319824,3.372459888458252,-2.4721200466156006,0.0,518529.0
1.0,-37.221923828125,27.815114974975586,7.062429428100586,-38.74219512939453,0.0,0.0,0.0,-0.0,0.3947743773460388,0.927121639251709,-0.0022582949604839087,10.422579765319824,3.372459888458252,-2.4721200466156006,0.0,518530.0
1.0,-41.10519027709961,-1.4664112329483032,86.67955017089844,25.735328674316406,0.0,0.0,0.0,-0.0,0.3947743773460388,0.927121639251709,-0.0022582949604839087,10.422579765319824,3.372459888458252,-2.4721200466156006,0.0,518531.0
1.0,-24.43821144104004,-28.82733726501465,127.65864562988281,91.96846771240234,0.0,0.0,0.0,-0.0,0.3912953734397888,0.9497656226158142,-0.008239724673330784,-9.9647798538208,1.5717799663543701,2.578939914703369,0.0,518532.0
1.0,-7.7503981590271,-40.14059066772461,104.09552001953125,109.75472259521484,0.0,0.0,0.0,-0.0,0.3912953734397888,0.9497656226158142,-0.008239724673330784,-9.9647798538208,1.5717799663543701,2.578939914703369,0.0,518533.0
1.0,4.498449325561523,-29.631486892700195,26.314834594726562,60.315216064453125,0.0,0.0,0.0,-0.0,0.3912953734397888,0.9497656226158142,-0.008239724673330784,-9.9647798538208,1.5717799663543701,2.578939914703369,0.0,518534.0
1.0,46.750221252441406,-2.217564105987549,-62.139591217041016,-29.02328872680664,0.0,0.0,0.0,-0.0,0.3912953734397888,0.9497656226158142,-0.008239724673330784,-9.9647798538208,1.5717799663543701,2.578939914703369,0.0,518535.0
1.0,130.02069091796875,27.847644805908203,-111.81172180175781,-104.01692199707031,0.0,0.0,0.0,-0.0,0.3912953734397888,0.9497656226158142,-0.008239724673330784,-9.9647798538208,1.5717799663543701,2.578939914703369,0.0,518536.0
1.0,183.37315368652344,43.06169891357422,-98.27456665039062,-115.74640655517578,0.0,0.0,0.0,-0.0,0.3912953734397888,0.9497656226158142,-0.008239724673330784,-9.9647798538208,1.5717799663543701,2.578939914703369,0.0,518537.0
1.0,126.88903045654297,33.61115264892578,-37.31635665893555,-55.4674186706543,0.0,0.0,0.0,-0.0,0.3912953734397888,0.9497656226158142,-0.008239724673330784,-9.9647798538208,1.5717799663543701,2.578939914703369,0.0,518538.0
1.0,-21.776451110839844,4.629128932952881,30.634708404541016,37.566490173339844,0.0,0.0,0.0,-0.0,0.3912953734397888,0.9497656226158142,-0.008239724673330784,-9.9647798538208,1.5717799663543701,2.578939914703369,0.0,518539.0
1.0,-163.31939697265625,-27.359786987304688,72.29387664794922,108.98152923583984,0.0,0.0,0.0,-0.0,0.3912953734397888,0.9497656226158142,-0.008239724673330784,-9.9647798538208,1.5717799663543701,2.578939914703369,0.0,518540.0
1.0,-215.04144287109375,-44.534461975097656,80.36283874511719,121.30718231201172,0.0,0.0,0.0,-0.0,0.3912953734397888,0.9497656226158142,-0.008239724673330784,-9.9647798538208,1.5717799663543701,2.578939914703369,0.0,518541.0
1.0,-169.4116668701172,-37.48188018798828,67.48245239257812,66.68914794921875,0.0,0.0,0.0,-0.0,0.3906850218772888,0.929318904876709,0.004150379914790392,-8.698200225830078,-0.1373399943113327,-1.0681999921798706,0.0,518542.0
1.0,-71.40528106689453,-10.064560890197754,42.11405944824219,-26.571134567260742,0.0,0.0,0.0,-0.0,0.3906850218772888,0.929318904876709,0.004150379914790392,-8.698200225830078,-0.1373399943113327,-1.0681999921798706,0.0,518543.0
1.0,35.335662841796875,22.83017349243164,-0.039968185126781464,-106.4672622680664,0.0,0.0,0.0,-0.0,0.3906850218772888,0.929318904876709,0.004150379914790392,-8.698200225830078,-0.1373399943113327,-1.0681999921798706,0.0,518544.0
1.0,120.26775360107422,43.20404052734375,-51.45393371582031,-128.71095275878906,0.0,0.0,0.0,-0.0,0.3906850218772888,0.929318904876709,0.004150379914790392,-8.698200225830078,-0.1373399943113327,-1.0681999921798706,0.0,518545.0
1.0,151.7743377685547,39.94778060913086,-85.4865951538086,-83.36254119873047,0.0,0.0,-0.0,-0.0,0.3906850218772888,0.929318904876709,0.004150379914790392,-8.698200225830078,-0.1373399943113327,-1.0681999921798706,0.0,518546.0
1.0,114.20536804199219,14.993901252746582,-84.52619934082031,-0.619535505771637,0.0,0.0,-0.0,-0.0,0.3906850218772888,0.929318904876709,0.004150379914790392,-8.698200225830078,-0.1373399943113327,-1.0681999921798706,0.0,518547.0
1.0,27.006723403930664,-18.409893035888672,-51.59473419189453,71.80118560791016,0.0,0.0,-0.0,-0.0,0.3906850218772888,0.929318904876709,0.004150379914790392,-8.698200225830078,-0.1373399943113327,-1.0681999921798706,0.0,518548.0
1.0,-68.7842025756836,-42.67472457885742,0.7307913899421692,101.11397552490234,0.0,0.0,-0.0,-0.0,0.3906850218772888,0.929318904876709,0.004150379914790392,-8.698200225830078,-0.1373399943113327,-1.0681999921798706,0.0,518549.0
1.0,-126.8123550415039,-44.47770309448242,53.47691345214844,81.40052032470703,0.0,0.0,-0.0,-0.0,0.3906850218772888,0.929318904876709,0.004150379914790392,-8.698200225830078,-0.1373399943113327,-1.0681999921798706,0.0,518550.0
1.0,-110.8460922241211,-21.891862869262695,79.99002838134766,25.294544219970703,0.0,0.0,-0.0,-0.0,0.3906850218772888,0.929318904876709,0.004150379914790392,-8.698200225830078,-0.1373399943113327,-1.0681999921798706,0.0,518551.0
1.0,-24.99053192138672,13.752288818359375,60.36085510253906,-42.82537078857422,0.0,0.0,-0.0,-0.0,0.3787221610546112,0.9008765816688538,0.012512175366282463,6.775440216064453,1.0681999921798706,-5.264699935913086,0.0,518552.0
1.0,77.6692886352539,43.064701080322266,5.609563827514648,-88.50048065185547,0.0,0.0,-0.0,-0.0,0.3787221610546112,0.9008765816688538,0.012512175366282463,6.775440216064453,1.0681999921798706,-5.264699935913086,0.0,518553.0
1.0,131.0276336669922,49.54716110229492,-43.91664123535156,-82.01667022705078,0.0,0.0,-0.0,-0.0,0.3787221610546112,0.9008765816688538,0.012512175366282463,6.775440216064453,1.0681999921798706,-5.264699935913086,0.0,518554.0
1.0,102.37065124511719,29.504512786865234,-52.78044891357422,-25.434406280517578,0.0,0.0,-0.0,-0.0,0.3787221610546112,0.9008765816688538,0.012512175366282463,6.775440216064453,1.0681999921798706,-5.264699935913086,0.0,518555.0
1.0,14.097358703613281,-6.411343574523926,-20.654088973999023,43.442020416259766,0.0,0.0,-0.0,-0.0,0.3787221610546112,0.9008765816688538,0.012512175366282463,6.775440216064453,1.0681999921798706,-5.264699935913086,0.0,518556.0
1.0,-74.5225830078125,-39.327430725097656,19.16842269897461,82.85429382324219,0.0,0.0,-0.0,-0.0,0.3787221610546112,0.9008765816688538,0.012512175366282463,6.775440216064453,1.0681999921798706,-5.264699935913086,0.0,518557.0
1.0,-109.36911010742188,-51.76020431518555,30.14982795715332,75.86485290527344,0.0,0.0,-0.0,-0.0,0.3787221610546112,0.9008765816688538,0.012512175366282463,6.775440216064453,1.0681999921798706,-5.264699935913086,0.0,518558.0
1.0,-74.71476745605469,-36.89642333984375,5.829809665679932,32.47213363647461,0.0,0.0,-0.0,-0.0,0.3787221610546112,0.9008765816688538,0.012512175366282463,6.775440216064453,1.0681999921798706,-5.264699935913086,0.0,518559.0
1.0,-8.160309791564941,-2.5909931659698486,-24.28722381591797,-20.514081954956055,0.0,0.0,-0.0,-0.0,0.3787221610546112,0.9008765816688538,0.012512175366282463,6.775440216064453,1.0681999921798706,-5.264699935913086,0.0,518560.0
1.0,27.558143615722656,32.415565490722656,-28.199630737304688,-57.57625961303711,0.0,0.0,-0.0,-0.0,0.3787221610546112,0.9008765816688538,0.012512175366282463,6.775440216064453,1.0681999921798706,-5.264699935913086,0.0,518561.0
1.0,17.871309280395508,48.99506759643555,-9.209073066711426,-72.12584686279297,0.0,0.0,-0.0,-0.0,0.3925160765647888,0.9091773629188538,0.007080059964209795,7.935200214385986,5.310480117797852,-3.052000045776367,0.0,518562.0
1.0,11.199629783630371,39.258995056152344,10.723578453063965,-66.45543670654297,0.0,0.0,-0.0,-0.0,0.3925160765647888,0.9091773629188538,0.007080059964209795,7.935200214385986,5.310480117797852,-3.052000045776367,0.0,518563.0
1.0,38.782554626464844,10.237279891967773,29.320411682128906,-33.69181442260742,0.0,0.0,-0.0,-0.0,0.3925160765647888,0.9091773629188538,0.007080059964209795,7.935200214385986,5.310480117797852,-3.052000045776367,0.0,518564.0
1.0,73.17311096191406,-21.863529205322266,49.4344596862793,24.9295597076416,0.0,0.0,-0.0,-0.0,0.3925160765647888,0.9091773629188538,0.007080059964209795,7.935200214385986,5.310480117797852,-3.052000045776367,0.0,518565.0
1.0,75.35671997070312,-40.57202911376953,52.99454879760742,79.46994018554688,0.0,0.0,-0.0,-0.0,0.3925160765647888,0.9091773629188538,0.007080059964209795,7.935200214385986,5.310480117797852,-3.052000045776367,0.0,518566.0
1.0,35.05288314819336,-37.2104377746582,19.1213321685791,90.90353393554688,0.0,0.0,-0.0,-0.0,0.3925160765647888,0.9091773629188538,0.007080059964209795,7.935200214385986,5.310480117797852,-3.052000045776367,0.0,518567.0
1.0,-29.115100860595703,-14.868656158447266,-45.64794921875,45.573890686035156,0.0,0.0,-0.0,-0.0,0.3925160765647888,0.9091773629188538,0.007080059964209795,7.935200214385986,5.310480117797852,-3.052000045776367,0.0,518568.0
1.0,-84.03377532958984,13.916150093078613,-101.24940490722656,-29.322072982788086,0.0,0.0,-0.0,-0.0,0.3925160765647888,0.9091773629188538,0.007080059964209795,7.935200214385986,5.310480117797852,-3.052000045776367,0.0,518569.0
1.0,-104.8465347290039,33.71073913574219,-102.86991119384766,-82.99669647216797,0.0,0.0,-0.0,-0.0,0.3925160765647888,0.9091773629188538,0.007080059964209795,7.935200214385986,5.310480117797852,-3.052000045776367,0.0,518570.0
1.0,-87.6888198852539,34.178871154785156,-41.92118835449219,-81.20621490478516,0.0,0.0,-0.0,-0.0,0.3925160765647888,0.9091773629188538,0.007080059964209795,7.935200214385986,5.310480117797852,-3.052000045776367,0.0,518571.0
1.0,-44.033905029296875,15.493916511535645,45.575042724609375,-27.863384246826172,0.0,0.0,-0.0,-0.0,0.3925160765647888,0.926877498626709,0.0014648400247097015,-1.892240047454834,3.1740798950195312,-3.31141996383667,0.0,518572.0
1.0,5.523296356201172,-12.141757011413574,108.01272583007812,47.66360092163086,0.0,0.0,-0.0,0.0,0.3925160765647888,0.926877498626709,0.0014648400247097015,-1.892240047454834,3.1740798950195312,-3.31141996383667,0.0,518573.0
1.0,41.84953308105469,-33.32856369018555,114.52808380126953,107.47852325439453,0.0,0.0,-0.0,0.0,0.3925160765647888,0.926877498626709,0.0014648400247097015,-1.892240047454834,3.1740798950195312,-3.31141996383667,0.0,518574.0
1.0,63.50891876220703,-35.21585464477539,69.63323974609375,114.20504760742188,0.0,0.0,-0.0,0.0,0.3925160765647888,0.926877498626709,0.0014648400247097015,-1.892240047454834,3.1740798950195312,-3.31141996383667,0.0,518575.0
1.0,79.95289611816406,-15.715167045593262,-1.015144944190979,52.79151153564453,0.0,0.0,-0.0,0.0,0.3925160765647888,0.926877498626709,0.0014648400247097015,-1.892240047454834,3.1740798950195312,-3.31141996383667,0.0,518576.0
1.0,88.37258911132812,14.245984077453613,-68.93983459472656,-46.60574722290039,0.0,0.0,-0.0,0.0,0.3925160765647888,0.926877498626709,0.0014648400247097015,-1.892240047454834,3.1740798950195312,-3.31141996383667,0.0,518577.0
1.0,73.04741668701172,37.10242462158203,-106.40721130371094,-125.06900024414062,0.0,0.0,-0.0,0.0,0.3925160765647888,0.926877498626709,0.0014648400247097015,-1.892240047454834,3.1740798950195312,-3.31141996383667,0.0,518578.0
1.0,26.481006622314453,39.49363708496094,-91.14875793457031,-140.0238037109375,0.0,0.0,-0.0,0.0,0.3925160765647888,0.926877498626709,0.0014648400247097015,-1.892240047454834,3.1740798950195312,-3.31141996383667,0.0,518579.0
1.0,-39.3564338684082,19.920289993286133,-25.999597549438477,-87.47959899902344,0.0,0.0,-0.0,0.0,0.3925160765647888,0.926877498626709,0.0014648400247097015,-1.892240047454834,3.1740798950195312,-3.31141996383667,0.0,518580.0
1.0,-103.53268432617188,-11.596633911132812,51.52349853515625,5.672812461853027,0.0,0.0,-0.0,0.0,0.3925160765647888,0.926877498626709,0.0014648400247097015,-1.892240047454834,3.1740798950195312,-3.31141996383667,0.0,518581.0
1.0,-141.46722412109375,-39.00578308105469,93.50003814697266,90.9721450805664,0.0,0.0,-0.0,0.0,0.3870229423046112,0.932004451751709,0.00939938984811306,-11.719679832458496,-0.9308599829673767,-1.6175600290298462,0.0,518582.0
1.0,-121.36392211914062,-47.41379928588867,78.15055847167969,118.74979400634766,0.0,0.0,-0.0,0.0,0.3870229423046112,0.932004451751709,0.00939938984811306,-11.719679832458496,-0.9308599829673767,-1.6175600290298462,0.0,518583.0
1.0,-34.74391555786133,-30.915990829467773,22.30323028564453,77.63741302490234,0.0,0.0,-0.0,0.0,0.3870229423046112,0.932004451751709,0.00939938984811306,-11.719679832458496,-0.9308599829673767,-1.6175600290298462,0.0,518584.0
1.0,67.5201416015625,2.904816150665283,-38.035125732421875,5.071233749389648,0.0,0.0,-0.0,0.0,0.3870229423046112,0.932004451751709,0.00939938984811306,-11.719679832458496,-0.9308599829673767,-1.6175600290298462,0.0,518585.0
1.0,115.38813781738281,36.075836181640625,-73.08074188232422,-50.28620147705078,0.0,0.0,-0.0,0.0,0.3870229423046112,0.932004451751709,0.00939938984811306,-11.719679832458496,-0.9308599829673767,-1.6175600290298462,0.0,518586.0
1.0,99.7204818725586,50.63924026489258,-69.92009735107422,-64.90777587890625,0.0,0.0,-0.0,0.0,0.3870229423046112,0.932004451751709,0.00939938984811306,-11.719679832458496,-0.9308599829673767,-1.6175600290298462,0.0,518587.0
1.0,71.58676147460938,39.62610626220703,-31.948549270629883,-43.53546142578125,0.0,0.0,-0.0,0.0,0.3870229423046112,0.932004451751709,0.00939938984811306,-11.719679832458496,-0.9308599829673767,-1.6175600290298462,0.0,518588.0
1.0,57.77170181274414,9.722707748413086,25.052303314208984,-3.6036934852600098,0.0,0.0,-0.0,0.0,0.3870229423046112,0.932004451751709,0.00939938984811306,-11.719679832458496,-0.9308599829673767,-1.6175600290298462,0.0,518589.0
1.0,27.460838317871094,-23.94962501525879,75.72271728515625,35.956512451171875,0.0,0.0,-0.0,0.0,0.3870229423046112,0.932004451751709,0.00939938984811306,-11.719679832458496,-0.9308599829673767,-1.6175600290298462,0.0,518590.0
1.0,-39.41135787963867,-44.8176383972168,91.5810546875,55.7496337890625,0.0,0.0,-0.0,0.0,0.3870229423046112,0.932004451751709,0.00939938984811306,-11.719679832458496,-0.9308599829673767,-1.6175600290298462,0.0,518591.0
1.0,-101.30477905273438,-42.407257080078125,54.50999069213867,40.674869537353516,0.0,0.0,-0.0,0.0,0.3848867118358612,0.9116798043251038,0.025329524651169777,-2.2584800720214844,-2.2279601097106934,-3.402980089187622,0.0,518592.0
1.0,-103.58564758300781,-18.178049087524414,-23.546064376831055,-4.223807334899902,0.0,0.0,-0.0,0.0,0.3848867118358612,0.9116798043251038,0.025329524651169777,-2.2584800720214844,-2.2279601097106934,-3.402980089187622,0.0,518593.0
1.0,-48.17402648925781,14.988849639892578,-92.47606658935547,-47.00893020629883,0.0,0.0,-0.0,0.0,0.3848867118358612,0.9116798043251038,0.025329524651169777,-2.2584800720214844,-2.2279601097106934,-3.402980089187622,0.0,518594.0
1.0,14.896270751953125,39.4457893371582,-101.79708099365234,-55.22892379760742,0.0,0.0,-0.0,0.0,0.3848867118358612,0.9116798043251038,0.025329524651169777,-2.2584800720214844,-2.2279601097106934,-3.402980089187622,0.0,518595.0
1.0,41.99677276611328,42.008522033691406,-52.781368255615234,-29.177024841308594,0.0,0.0,-0.0,0.0,0.3848867118358612,0.9116798043251038,0.025329524651169777,-2.2584800720214844,-2.2279601097106934,-3.402980089187622,0.0,518596.0
1.0,16.629222869873047,20.932661056518555,9.866127014160156,6.405218601226807,0.0,0.0,-0.0,0.0,0.3848867118358612,0.9116798043251038,0.025329524651169777,-2.2584800720214844,-2.2279601097106934,-3.402980089187622,0.0,518597.0
1.0,-44.281288146972656,-12.731626510620117,49.96194839477539,31.34771156311035,0.0,0.0,-0.0,0.0,0.3848867118358612,0.9116798043251038,0.025329524651169777,-2.2584800720214844,-2.2279601097106934,-3.402980089187622,0.0,518598.0
1.0,-82.28768157958984,-40.11351776123047,59.1265754699707,35.15021896362305,0.0,0.0,-0.0,0.0,0.3848867118358612,0.9116798043251038,0.025329524651169777,-2.2584800720214844,-2.2279601097106934,-3.402980089187622,0.0,518599.0
1.0,-41.566261291503906,-45.12782669067383,41.56022644042969,14.152962684631348,0.0,0.0,-0.0,0.0,0.3848867118358612,0.9116798043251038,0.025329524651169777,-2.2584800720214844,-2.2279601097106934,-3.402980089187622,0.0,518600.0
1.0,65.8309326171875,-24.447263717651367,8.20633602142334,-18.72205352783203,0.0,0.0,-0.0,0.0,0.3848867118358612,0.9116798043251038,0.025329524651169777,-2.2584800720214844,-2.2279601097106934,-3.402980089187622,0.0,518601.0
1.0,161.7972412109375,10.495986938476562,-21.469135284423828,-35.7686767578125,0.0,0.0,-0.0,0.0,0.3820790946483612,0.9110694527626038,0.022216739133000374,8.02676010131836,0.8698199987411499,-2.2890000343322754,0.0,518602.0
1.0,168.05099487304688,39.788063049316406,-29.917938232421875,-21.47671127319336,0.0,0.0,-0.0,0.0,0.3820790946483612,0.9110694527626038,0.022216739133000374,8.02676010131836,0.8698199987411499,-2.2890000343322754,0.0,518603.0
1.0,69.07754516601562,46.52857208251953,-15.359735488891602,10.259471893310547,0.0,0.0,-0.0,0.0,0.3820790946483612,0.9110694527626038,0.022216739133000374,8.02676010131836,0.8698199987411499,-2.2890000343322754,0.0,518604.0
1.0,-77.99845123291016,27.13720703125,7.49271821975708,32.94963455200195,0.0,0.0,-0.0,0.0,0.3820790946483612,0.9110694527626038,0.022216739133000374,8.02676010131836,0.8698199987411499,-2.2890000343322754,0.0,518605.0
1.0,-179.8017578125,-7.103734493255615,18.723987579345703,30.15259552001953,0.0,0.0,-0.0,0.0,0.3820790946483612,0.9110694527626038,0.022216739133000374,8.02676010131836,0.8698199987411499,-2.2890000343322754,0.0,518606.0
1.0,-166.98785400390625,-37.00846481323242,10.77568244934082,5.783720970153809,0.0,0.0,-0.0,0.0,0.3820790946483612,0.9110694527626038,0.022216739133000374,8.02676010131836,0.8698199987411499,-2.2890000343322754,0.0,518607.0
1.0,-53.21760940551758,-46.021728515625,-0.014735173434019089,-14.309840202331543,0.0,0.0,-0.0,0.0,0.3820790946483612,0.9110694527626038,0.022216739133000374,8.02676010131836,0.8698199987411499,-2.2890000343322754,0.0,518608.0
1.0,76.72088623046875,-29.30472183227539,5.675585746765137,-5.709773063659668,0.0,0.0,-0.0,0.0,0.3820790946483612,0.9110694527626038,0.022216739133000374,8.02676010131836,0.8698199987411499,-2.2890000343322754,0.0,518609.0
1.0,143.73126220703125,3.7139458656311035,18.28083610534668,20.865833282470703,0.0,0.0,-0.0,0.0,0.3820790946483612,0.9110694527626038,0.022216739133000374,8.02676010131836,0.8698199987411499,-2.2890000343322754,0.0,518610.0
1.0,119.70068359375,34.4522819519043,13.190126419067383,27.591968536376953,0.0,0.0,-0.0,0.0,0.3820790946483612,0.9110694527626038,0.022216739133000374,8.02676010131836,0.8698199987411499,-2.2890000343322754,0.0,518611.0
1.0,26.69149398803711,45.60741424560547,-11.127047538757324,-3.7982518672943115,0.0,0.0,-0.0,0.0,0.3937978148460388,0.926755428314209,0.01019284501671791,2.7010200023651123,3.753959894180298,1.0681999921798706,0.0,518612.0
1.0,-77.4815444946289,31.528100967407227,-31.20146942138672,-47.30680847167969,0.0,0.0,-0.0,0.0,0.3937978148460388,0.926755428314209,0.01019284501671791,2.7010200023651123,3.753959894180298,1.0681999921798706,0.0,518613.0
1.0,-132.45782470703125,0.7696154713630676,-26.92650604248047,-61.09853744506836,0.0,0.0,-0.0,0.0,0.3937978148460388,0.926755428314209,0.01019284501671791,2.7010200023651123,3.753959894180298,1.0681999921798706,0.0,518614.0
1.0,-113.65210723876953,-29.933835983276367,-2.67392635345459,-32.603023529052734,0.0,0.0,-0.0,0.0,0.3937978148460388,0.926755428314209,0.01019284501671791,2.7010200023651123,3.753959894180298,1.0681999921798706,0.0,518615.0
1.0,-43.35479736328125,-44.529518127441406,16.69684600830078,12.626282691955566,0.0,0.0,-0.0,0.0,0.3937978148460388,0.926755428314209,0.01019284501671791,2.7010200023651123,3.753959894180298,1.0681999921798706,0.0,518616.0
1.0,33.6688117980957,-35.54255676269531,11.653602600097656,41.5997428894043,0.0,0.0,-0.0,0.0,0.3937978148460388,0.926755428314209,0.01019284501671791,2.7010200023651123,3.753959894180298,1.0681999921798706,0.0,518617.0
1.0,84.06941986083984,-7.761411666870117,-14.395774841308594,41.83467483520508,0.0,0.0,-0.0,0.0,0.3937978148460388,0.926755428314209,0.01019284501671791,2.7010200023651123,3.753959894180298,1.0681999921798706,0.0,518618.0
1.0,92.31295013427734,24.245473861694336,-42.1360969543457,20.73770523071289,0.0,0.0,-0.0,0.0,0.3937978148460388,0.926755428314209,0.01019284501671791,2.7010200023651123,3.753959894180298,1.0681999921798706,0.0,518619.0
1.0,57.24386978149414,43.49962615966797,-50.733909606933594,-6.552215576171875,0.0,0.0,-0.0,0.0,0.3937978148460388,0.926755428314209,0.01019284501671791,2.7010200023651123,3.753959894180298,1.0681999921798706,0.0,518620.0
1.0,8.514080047607422,40.073158264160156,-30.296689987182617,-25.81786346435547,0.0,0.0,-0.0,0.0,0.3937978148460388,0.926755428314209,0.01019284501671791,2.7010200023651123,3.753959894180298,1.0681999921798706,0.0,518621.0
1.0,-9.97603988647461,16.245838165283203,13.67260456085205,-28.355789184570312,0.0,0.0,-0.0,0.0,0.3887929618358612,0.934689998626709,0.0021972600370645523,-0.1373399943113327,1.4191800355911255,3.815000057220459,0.0,518622.0
1.0,1.1389107704162598,-15.870630264282227,64.62681579589844,-10.46766471862793,0.0,0.0,-0.0,0.0,0.3887929618358612,0.934689998626709,0.0021972600370645523,-0.1373399943113327,1.4191800355911255,3.815000057220459,0.0,518623.0
1.0,3.4334168434143066,-39.902469635009766,97.83167266845703,22.735177993774414,0.0,0.0,-0.0,0.0,0.3887929618358612,0.934689998626709,0.0021972600370645523,-0.1373399943113327,1.4191800355911255,3.815000057220459,0.0,518624.0
1.0,-11.159036636352539,-42.470436096191406,91.95471954345703,51.43281173706055,0.0,0.0,-0.0,0.0,0.3887929618358612,0.934689998626709,0.0021972600370645523,-0.1373399943113327,1.4191800355911255,3.815000057220459,0.0,518625.0
1.0,-16.753252029418945,-21.36083984375,45.16912078857422,50.89582443237305,0.0,0.0,0.0,0.0,0.3887929618358612,0.934689998626709,0.0021972600370645523,-0.1373399943113327,1.4191800355911255,3.815000057220459,0.0,518626.0
1.0,-7.407432556152344,11.702505111694336,-24.535978317260742,13.576936721801758,0.0,0.0,0.0,0.0,0.3887929618358612,0.934689998626709,0.0021972600370645523,-0.1373399943113327,1.4191800355911255,3.815000057220459,0.0,518627.0
1.0,-4.52206563949585,37.692928314208984,-83.71490478515625,-39.880733489990234,0.0,0.0,0.0,0.0,0.3887929618358612,0.934689998626709,0.0021972600370645523,-0.1373399943113327,1.4191800355911255,3.815000057220459,0.0,518628.0
1.0,-18.126995086669922,42.20356750488281,-96.54584503173828,-73.75975799560547,0.0,0.0,0.0,0.0,0.3887929618358612,0.934689998626709,0.0021972600370645523,-0.1373399943113327,1.4191800355911255,3.815000057220459,0.0,518629.0
1.0,-34.203765869140625,23.469024658203125,-57.34075927734375,-63.58715057373047,0.0,0.0,0.0,0.0,0.3887929618358612,0.934689998626709,0.0021972600370645523,-0.1373399943113327,1.4191800355911255,3.815000057220459,0.0,518630.0
1.0,-35.512306213378906,-8.10267162322998,-0.4135465621948242,-15.329170227050781,0.0,0.0,0.0,0.0,0.3887929618358612,0.934689998626709,0.0021972600370645523,-0.1373399943113327,1.4191800355911255,3.815000057220459,0.0,518631.0
1.0,-19.615747451782227,-35.75034713745117,35.98781967163086,37.919151306152344,0.0,0.0,0.0,0.0,0.3851308524608612,0.923947811126709,0.014587365090847015,-4.990019798278809,-1.1902799606323242,-1.846459984779358,0.0,518632.0
1.0,1.3923695087432861,-44.583553314208984,41.98649978637695,61.320037841796875,0.0,0.0,0.0,0.0,0.3851308524608612,0.923947811126709,0.014587365090847015,-4.990019798278809,-1.1902799606323242,-1.846459984779358,0.0,518633.0
1.0,16.143348693847656,-29.38230323791504,28.124025344848633,44.52645492553711,0.0,0.0,0.0,0.0,0.3851308524608612,0.923947811126709,0.014587365090847015,-4.990019798278809,-1.1902799606323242,-1.846459984779358,0.0,518634.0
1.0,23.451688766479492,2.378701686859131,4.727195739746094,5.97626256942749,0.0,0.0,0.0,0.0,0.3851308524608612,0.923947811126709,0.014587365090847015,-4.990019798278809,-1.1902799606323242,-1.846459984779358,0.0,518635.0
1.0,26.234912872314453,33.622032165527344,-18.755962371826172,-25.593324661254883,0.0,0.0,0.0,0.0,0.3851308524608612,0.923947811126709,0.014587365090847015,-4.990019798278809,-1.1902799606323242,-1.846459984779358,0.0,518636.0
1.0,25.432456970214844,46.732421875,-26.024017333984375,-31.682235717773438,0.0,0.0,0.0,0.0,0.3851308524608612,0.923947811126709,0.014587365090847015,-4.990019798278809,-1.1902799606323242,-1.846459984779358,0.0,518637.0
1.0,20.285476684570312,34.61365509033203,-7.993910312652588,-12.277342796325684,0.0,0.0,0.0,0.0,0.3851308524608612,0.923947811126709,0.014587365090847015,-4.990019798278809,-1.1902799606323242,-1.846459984779358,0.0,518638.0
1.0,9.590627670288086,4.397343158721924,18.815587997436523,15.342801094055176,0.0,0.0,0.0,0.0,0.3851308524608612,0.923947811126709,0.014587365090847015,-4.990019798278809,-1.1902799606323242,-1.846459984779358,0.0,518639.0
1.0,-5.186869144439697,-27.963134765625,26.793212890625,26.33264923095703,0.0,0.0,0.0,0.0,0.3851308524608612,0.923947811126709,0.014587365090847015,-4.990019798278809,-1.1902799606323242,-1.846459984779358,0.0,518640.0
1.0,-17.313539505004883,-45.839088439941406,5.462213516235352,7.9129157066345215,0.0,0.0,0.0,0.0,0.3851308524608612,0.923947811126709,0.014587365090847015,-4.990019798278809,-1.1902799606323242,-1.846459984779358,0.0,518641.0
1.0,-18.85051727294922,-39.7358283996582,-30.25543975830078,-27.22266960144043,0.0,0.0,0.0,0.0,0.3828725516796112,0.8961769342422485,0.025695735588669777,5.417300224304199,-1.40392005443573,-4.700079917907715,0.0,518642.0
1.0,-8.591288566589355,-12.589166641235352,-51.419647216796875,-50.959407806396484,0.0,0.0,0.0,0.0,0.3828725516796112,0.8961769342422485,0.025695735588669777,5.417300224304199,-1.40392005443573,-4.700079917907715,0.0,518643.0
1.0,6.3379669189453125,21.399463653564453,-37.06468963623047,-42.41673278808594,0.0,0.0,0.0,0.0,0.3828725516796112,0.8961769342422485,0.025695735588669777,5.417300224304199,-1.40392005443573,-4.700079917907715,0.0,518644.0
1.0,16.259347915649414,44.28478240966797,5.8784918785095215,-5.259797096252441,0.0,0.0,0.0,0.0,0.3828725516796112,0.8961769342422485,0.025695735588669777,5.417300224304199,-1.40392005443573,-4.700079917907715,0.0,518645.0
1.0,7.447512626647949,43.663421630859375,48.10366439819336,33.92591857910156,0.0,0.0,0.0,0.0,0.3828725516796112,0.8961769342422485,0.025695735588669777,5.417300224304199,-1.40392005443573,-4.700079917907715,0.0,518646.0
1.0,-30.12648582458496,19.217426300048828,66.62439727783203,51.8565559387207,0.0,0.0,0.0,0.0,0.3828725516796112,0.8961769342422485,0.025695735588669777,5.417300224304199,-1.40392005443573,-4.700079917907715,0.0,518647.0
1.0,-71.63418579101562,-16.21587371826172,58.03427505493164,47.084720611572266,0.0,0.0,0.0,0.0,0.3828725516796112,0.8961769342422485,0.025695735588669777,5.417300224304199,-1.40392005443573,-4.700079917907715,0.0,518648.0
1.0,-64.6343002319336,-42.816734313964844,26.420425415039062,27.037944793701172,0.0,0.0,0.0,0.0,0.3828725516796112,0.8961769342422485,0.025695735588669777,5.417300224304199,-1.40392005443573,-4.700079917907715,0.0,518649.0
1.0,7.111301422119141,-45.437705993652344,-20.45562171936035,-1.4175910949707031,0.0,0.0,0.0,0.0,0.3828725516796112,0.8961769342422485,0.025695735588669777,5.417300224304199,-1.40392005443573,-4.700079917907715,0.0,518650.0
1.0,95.30748748779297,-22.702138900756836,-63.29200744628906,-24.936614990234375,0.0,0.0,0.0,0.0,0.3828725516796112,0.8961769342422485,0.025695735588669777,5.417300224304199,-1.40392005443573,-4.700079917907715,0.0,518651.0
1.0,130.57931518554688,12.64136791229248,-78.90866088867188,-32.08451843261719,0.0,0.0,0.0,0.0,0.3848867118358612,0.9025855660438538,0.01806635968387127,13.611920356750488,0.2899399995803833,-5.127359867095947,0.0,518652.0
1.0,75.7895736694336,40.580055236816406,-59.290008544921875,-26.796337127685547,0.0,0.0,0.0,0.0,0.3848867118358612,0.9025855660438538,0.01806635968387127,13.611920356750488,0.2899399995803833,-5.127359867095947,0.0,518653.0
1.0,-42.992862701416016,45.1323356628418,-18.734045028686523,-18.839265823364258,0.0,0.0,0.0,0.0,0.3848867118358612,0.9025855660438538,0.01806635968387127,13.611920356750488,0.2899399995803833,-5.127359867095947,0.0,518654.0
1.0,-134.845947265625,24.576433181762695,19.470033645629883,-11.37476921081543,0.0,0.0,0.0,-0.0,0.3848867118358612,0.9025855660438538,0.01806635968387127,13.611920356750488,0.2899399995803833,-5.127359867095947,0.0,518655.0
1.0,-110.06141662597656,-8.195428848266602,44.039066314697266,-2.4617364406585693,0.0,0.0,0.0,-0.0,0.3848867118358612,0.9025855660438538,0.01806635968387127,13.611920356750488,0.2899399995803833,-5.127359867095947,0.0,518656.0
1.0,18.679561614990234,-34.93394088745117,59.20705032348633,13.806488037109375,0.0,0.0,0.0,-0.0,0.3848867118358612,0.9025855660438538,0.01806635968387127,13.611920356750488,0.2899399995803833,-5.127359867095947,0.0,518657.0
1.0,136.50453186035156,-42.32673645019531,67.62057495117188,38.32956314086914,0.0,0.0,0.0,-0.0,0.3848867118358612,0.9025855660438538,0.01806635968387127,13.611920356750488,0.2899399995803833,-5.127359867095947,0.0,518658.0
1.0,144.17501831054688,-27.759071350097656,59.72221374511719,51.59225845336914,0.0,0.0,0.0,-0.0,0.3848867118358612,0.9025855660438538,0.01806635968387127,13.611920356750488,0.2899399995803833,-5.127359867095947,0.0,518659.0
1.0,45.026973724365234,0.5460966229438782,25.400615692138672,28.380287170410156,0.0,0.0,0.0,-0.0,0.3848867118358612,0.9025855660438538,0.01806635968387127,13.611920356750488,0.2899399995803833,-5.127359867095947,0.0,518660.0
1.0,-77.54827117919922,27.84881019592285,-29.14293098449707,-27.30353546142578,0.0,0.0,0.0,-0.0,0.3848867118358612,0.9025855660438538,0.01806635968387127,13.611920356750488,0.2899399995803833,-5.127359867095947,0.0,518661.0
1.0,-144.66787719726562,39.84794235229492,-80.19939422607422,-76.79484558105469,0.0,0.0,0.0,-0.0,0.3929433226585388,0.923337459564209,0.008544900454580784,2.990959882736206,0.5188400149345398,-4.608520030975342,0.0,518662.0
1.0,-139.71629333496094,30.013837814331055,-101.66708374023438,-79.76805114746094,0.0,0.0,0.0,-0.0,0.3929433226585388,0.923337459564209,0.008544900454580784,2.990959882736206,0.5188400149345398,-4.608520030975342,0.0,518663.0
1.0,-89.35169982910156,3.353959083557129,-80.570068359375,-30.602014541625977,0.0,0.0,0.0,-0.0,0.3929433226585388,0.923337459564209,0.008544900454580784,2.990959882736206,0.5188400149345398,-4.608520030975342,0.0,518664.0
1.0,-20.53837776184082,-25.857282638549805,-23.651933670043945,37.949947357177734,0.0,0.0,0.0,-0.0,0.3929433226585388,0.923337459564209,0.008544900454580784,2.990959882736206,0.5188400149345398,-4.608520030975342,0.0,518665.0
1.0,47.00439453125,-41.38687515258789,41.409912109375,84.77857971191406,0.0,0.0,0.0,-0.0,0.3929433226585388,0.923337459564209,0.008544900454580784,2.990959882736206,0.5188400149345398,-4.608520030975342,0.0,518666.0
1.0,94.59588623046875,-34.12922668457031,80.24281311035156,87.32514953613281,0.0,0.0,0.0,-0.0,0.3929433226585388,0.923337459564209,0.008544900454580784,2.990959882736206,0.5188400149345398,-4.608520030975342,0.0,518667.0
1.0,110.83585357666016,-7.3780412673950195,81.01815032958984,46.679866790771484,0.0,0.0,0.0,-0.0,0.3929433226585388,0.923337459564209,0.008544900454580784,2.990959882736206,0.5188400149345398,-4.608520030975342,0.0,518668.0
1.0,98.36656951904297,24.89146614074707,59.16429138183594,-13.89515495300293,0.0,0.0,0.0,-0.0,0.3929433226585388,0.923337459564209,0.008544900454580784,2.990959882736206,0.5188400149345398,-4.608520030975342,0.0,518669.0
1.0,68.67681884765625,45.16640853881836,29.737689971923828,-59.25089645385742,0.0,0.0,0.0,-0.0,0.3929433226585388,0.923337459564209,0.008544900454580784,2.990959882736206,0.5188400149345398,-4.608520030975342,0.0,518670.0
1.0,29.551210403442383,42.06928634643555,-5.031717300415039,-65.77874755859375,0.0,0.0,0.0,-0.0,0.3929433226585388,0.923337459564209,0.008544900454580784,2.990959882736206,0.5188400149345398,-4.608520030975342,0.0,518671.0
1.0,-21.206247329711914,16.86308479309082,-37.239009857177734,-35.34941101074219,0.0,0.0,0.0,-0.0,0.3870229423046112,0.931088924407959,0.012145965360105038,-1.358139991760254,-2.395819902420044,-2.2279601097106934,0.0,518672.0
1.0,-82.70262908935547,-17.595626831054688,-47.32129669189453,11.380965232849121,0.0,0.0,0.0,-0.0,0.3870229423046112,0.931088924407959,0.012145965360105038,-1.358139991760254,-2.395819902420044,-2.2279601097106934,0.0,518673.0
1.0,-129.6398468017578,-43.35927963256836,-32.342105865478516,47.039310455322266,0.0,0.0,0.0,-0.0,0.3870229423046112,0.931088924407959,0.012145965360105038,-1.358139991760254,-2.395819902420044,-2.2279601097106934,0.0,518674.0
1.0,-123.62980651855469,-46.49089050292969,-19.753446578979492,46.49460220336914,0.0,0.0,0.0,-0.0,0.3870229423046112,0.931088924407959,0.012145965360105038,-1.358139991760254,-2.395819902420044,-2.2279601097106934,0.0,518675.0
1.0,-53.87248611450195,-24.99563980102539,-32.72304153442383,1.7775678634643555,0.0,0.0,0.0,-0.0,0.3870229423046112,0.931088924407959,0.012145965360105038,-1.358139991760254,-2.395819902420044,-2.2279601097106934,0.0,518676.0
1.0,46.58259201049805,9.769513130187988,-54.77446746826172,-61.64655685424805,0.0,0.0,0.0,-0.0,0.3870229423046112,0.931088924407959,0.012145965360105038,-1.358139991760254,-2.395819902420044,-2.2279601097106934,0.0,518677.0
1.0,124.86814880371094,39.057559967041016,-47.056453704833984,-95.09052276611328,0.0,0.0,0.0,-0.0,0.3870229423046112,0.931088924407959,0.012145965360105038,-1.358139991760254,-2.395819902420044,-2.2279601097106934,0.0,518678.0
1.0,142.24195861816406,47.03644943237305,3.9125185012817383,-65.20368194580078,0.0,0.0,0.0,-0.0,0.3870229423046112,0.931088924407959,0.012145965360105038,-1.358139991760254,-2.395819902420044,-2.2279601097106934,0.0,518679.0
1.0,88.73528289794922,29.533357620239258,70.21562957763672,18.24748420715332,0.0,0.0,0.0,-0.0,0.3870229423046112,0.931088924407959,0.012145965360105038,-1.358139991760254,-2.395819902420044,-2.2279601097106934,0.0,518680.0
1.0,-18.76804542541504,-4.337240695953369,110.81385803222656,106.7591781616211,0.0,0.0,0.0,-0.0,0.3870229423046112,0.931088924407959,0.012145965360105038,-1.358139991760254,-2.395819902420044,-2.2279601097106934,0.0,518681.0
1.0,-132.85267639160156,-36.842838287353516,101.82786560058594,141.7612762451172,0.0,0.0,0.0,-0.0,0.3854360282421112,0.9170508980751038,0.01788325421512127,6.867000102996826,-0.946120023727417,-3.3877201080322266,0.0,518682.0
1.0,-178.27297973632812,-50.07726287841797,44.624916076660156,94.47417449951172,0.0,0.0,0.0,-0.0,0.3854360282421112,0.9170508980751038,0.01788325421512127,6.867000102996826,-0.946120023727417,-3.3877201080322266,0.0,518683.0
1.0,-102.37496948242188,-35.788482666015625,-36.20231246948242,-10.102136611938477,0.0,0.0,0.0,-0.0,0.3854360282421112,0.9170508980751038,0.01788325421512127,6.867000102996826,-0.946120023727417,-3.3877201080322266,0.0,518684.0
1.0,59.27139663696289,-0.8054763078689575,-100.26579284667969,-107.94651794433594,0.0,0.0,0.0,-0.0,0.3854360282421112,0.9170508980751038,0.01788325421512127,6.867000102996826,-0.946120023727417,-3.3877201080322266,0.0,518685.0
1.0,195.48251342773438,35.88333511352539,-111.0666732788086,-140.317626953125,0.0,0.0,0.0,-0.0,0.3854360282421112,0.9170508980751038,0.01788325421512127,6.867000102996826,-0.946120023727417,-3.3877201080322266,0.0,518686.0
1.0,208.98341369628906,53.39247512817383,-63.188724517822266,-95.37391662597656,0.0,0.0,0.0,-0.0,0.3854360282421112,0.9170508980751038,0.01788325421512127,6.867000102996826,-0.946120023727417,-3.3877201080322266,0.0,518687.0
1.0,92.09546661376953,41.538307189941406,9.654690742492676,-11.401655197143555,0.0,0.0,0.0,-0.0,0.3854360282421112,0.9170508980751038,0.01788325421512127,6.867000102996826,-0.946120023727417,-3.3877201080322266,0.0,518688.0
1.0,-78.23860168457031,7.025808334350586,65.57489776611328,62.86854553222656,0.0,0.0,0.0,-0.0,0.3854360282421112,0.9170508980751038,0.01788325421512127,6.867000102996826,-0.946120023727417,-3.3877201080322266,0.0,518689.0
1.0,-207.6416015625,-31.131420135498047,84.64588165283203,100.93269348144531,0.0,0.0,0.0,-0.0,0.3854360282421112,0.9170508980751038,0.01788325421512127,6.867000102996826,-0.946120023727417,-3.3877201080322266,0.0,518690.0
1.0,-233.54469299316406,-52.44561004638672,63.43449401855469,93.74944305419922,0.0,0.0,0.0,-0.0,0.3854360282421112,0.9170508980751038,0.01788325421512127,6.867000102996826,-0.946120023727417,-3.3877201080322266,0.0,518691.0
1.0,-141.74496459960938,-45.71626281738281,9.443546295166016,43.544071197509766,0.0,0.0,0.0,-0.0,0.3840932548046112,0.9121070504188538,0.016113240271806717,8.576120376586914,0.2136400043964386,-4.3643598556518555,0.0,518692.0
1.0,16.493043899536133,-14.937211036682129,-51.048133850097656,-28.639156341552734,0.0,0.0,0.0,-0.0,0.3840932548046112,0.9121070504188538,0.016113240271806717,8.576120376586914,0.2136400043964386,-4.3643598556518555,0.0,518693.0
1.0,149.5249786376953,22.960901260375977,-85.5076675415039,-86.41741180419922,0.0,0.0,0.0,-0.0,0.3840932548046112,0.9121070504188538,0.016113240271806717,8.576120376586914,0.2136400043964386,-4.3643598556518555,0.0,518694.0
1.0,202.82640075683594,47.84458923339844,-78.68269348144531,-97.47714233398438,0.0,0.0,0.0,-0.0,0.3840932548046112,0.9121070504188538,0.016113240271806717,8.576120376586914,0.2136400043964386,-4.3643598556518555,0.0,518695.0
1.0,181.4014129638672,47.628929138183594,-33.63924026489258,-54.56275939941406,0.0,0.0,0.0,-0.0,0.3840932548046112,0.9121070504188538,0.016113240271806717,8.576120376586914,0.2136400043964386,-4.3643598556518555,0.0,518696.0
1.0,101.00777435302734,23.501781463623047,36.009490966796875,18.789270401000977,0.0,0.0,0.0,-0.0,0.3840932548046112,0.9121070504188538,0.016113240271806717,8.576120376586914,0.2136400043964386,-4.3643598556518555,0.0,518697.0
1.0,-21.456302642822266,-12.132368087768555,101.33976745605469,82.35936737060547,0.0,0.0,0.0,-0.0,0.3840932548046112,0.9121070504188538,0.016113240271806717,8.576120376586914,0.2136400043964386,-4.3643598556518555,0.0,518698.0
1.0,-137.43882751464844,-41.23355484008789,122.12432861328125,101.90872192382812,0.0,0.0,0.0,-0.0,0.3840932548046112,0.9121070504188538,0.016113240271806717,8.576120376586914,0.2136400043964386,-4.3643598556518555,0.0,518699.0
1.0,-185.1763916015625,-48.47932815551758,76.58872985839844,67.80361938476562,0.0,0.0,0.0,-0.0,0.3840932548046112,0.9121070504188538,0.016113240271806717,8.576120376586914,0.2136400043964386,-4.3643598556518555,0.0,518700.0
1.0,-145.88465881347656,-30.14268684387207,-15.066414833068848,-0.7184589505195618,0.0,0.0,0.0,-0.0,0.3840932548046112,0.9121070504188538,0.016113240271806717,8.576120376586914,0.2136400043964386,-4.3643598556518555,0.0,518701.0
1.0,-56.37613296508789,3.265580415725708,-104.58497619628906,-68.16665649414062,0.0,0.0,0.0,-0.0,0.3884877860546112,0.924802303314209,0.0055541847832500935,4.684820175170898,2.3195199966430664,-1.9075000286102295,0.0,518702.0
1.0,33.4901008605957,33.09465408325195,-146.9415740966797,-101.97320556640625,0.0,0.0,0.0,-0.0,0.3884877860546112,0.924802303314209,0.0055541847832500935,4.684820175170898,2.3195199966430664,-1.9075000286102295,0.0,518703.0
1.0,94.24235534667969,43.666717529296875,-118.7586441040039,-86.47654724121094,0.0,0.0,0.0,-0.0,0.3884877860546112,0.924802303314209,0.0055541847832500935,4.684820175170898,2.3195199966430664,-1.9075000286102295,0.0,518704.0
1.0,113.70855712890625,30.925708770751953,-28.443065643310547,-29.360055923461914,0.0,0.0,0.0,-0.0,0.3884877860546112,0.924802303314209,0.0055541847832500935,4.684820175170898,2.3195199966430664,-1.9075000286102295,0.0,518705.0
1.0,91.43875122070312,2.832439422607422,79.26596069335938,40.17878341674805,0.0,0.0,0.0,-0.0,0.3884877860546112,0.924802303314209,0.0055541847832500935,4.684820175170898,2.3195199966430664,-1.9075000286102295,0.0,518706.0
1.0,41.512413024902344,-25.74516487121582,144.37205505371094,85.23118591308594,0.0,0.0,0.0,-0.0,0.3884877860546112,0.924802303314209,0.0055541847832500935,4.684820175170898,2.3195199966430664,-1.9075000286102295,0.0,518707.0
1.0,-13.223700523376465,-39.75891876220703,132.71832275390625,83.49308013916016,0.0,0.0,-0.0,-0.0,0.3884877860546112,0.924802303314209,0.0055541847832500935,4.684820175170898,2.3195199966430664,-1.9075000286102295,0.0,518708.0
1.0,-54.248714447021484,-31.594770431518555,58.43405532836914,42.314144134521484,0.0,0.0,-0.0,-0.0,0.3884877860546112,0.924802303314209,0.0055541847832500935,4.684820175170898,2.3195199966430664,-1.9075000286102295,0.0,518709.0
1.0,-72.87874603271484,-5.715760231018066,-31.646175384521484,-8.14355754852295,0.0,0.0,-0.0,-0.0,0.3884877860546112,0.924802303314209,0.0055541847832500935,4.684820175170898,2.3195199966430664,-1.9075000286102295,0.0,518710.0
1.0,-60.37712097167969,23.465848922729492,-93.57696533203125,-40.10893249511719,0.0,0.0,-0.0,-0.0,0.3884877860546112,0.924802303314209,0.0055541847832500935,4.684820175170898,2.3195199966430664,-1.9075000286102295,0.0,518711.0
1.0,-9.599266052246094,39.572872161865234,-109.79656219482422,-46.986785888671875,0.0,0.0,-0.0,-0.0,0.3857412040233612,0.931149959564209,0.007629374973475933,1.3733999729156494,0.4578000009059906,-0.5951399803161621,0.0,518712.0
1.0,57.69019317626953,33.6788330078125,-82.95413208007812,-35.982261657714844,0.0,0.0,-0.0,-0.0,0.3857412040233612,0.931149959564209,0.007629374973475933,1.3733999729156494,0.4578000009059906,-0.5951399803161621,0.0,518713.0
1.0,90.72801971435547,9.119695663452148,-22.34453582763672,-13.305493354797363,0.0,0.0,-0.0,-0.0,0.3857412040233612,0.931149959564209,0.007629374973475933,1.3733999729156494,0.4578000009059906,-0.5951399803161621,0.0,518714.0
1.0,54.62171173095703,-20.711912155151367,51.82665252685547,14.057056427001953,0.0,0.0,-0.0,-0.0,0.3857412040233612,0.931149959564209,0.007629374973475933,1.3733999729156494,0.4578000009059906,-0.5951399803161621,0.0,518715.0
1.0,-35.62484359741211,-39.499969482421875,104.3106460571289,32.932273864746094,0.0,0.0,-0.0,-0.0,0.3857412040233612,0.931149959564209,0.007629374973475933,1.3733999729156494,0.4578000009059906,-0.5951399803161621,0.0,518716.0
1.0,-118.4183120727539,-36.8332633972168,99.97907257080078,28.885934829711914,0.0,0.0,-0.0,-0.0,0.3857412040233612,0.931149959564209,0.007629374973475933,1.3733999729156494,0.4578000009059906,-0.5951399803161621,0.0,518717.0
1.0,-122.35284423828125,-13.842551231384277,30.443634033203125,-3.2051918506622314,0.0,0.0,-0.0,-0.0,0.3857412040233612,0.931149959564209,0.007629374973475933,1.3733999729156494,0.4578000009059906,-0.5951399803161621,0.0,518718.0
1.0,-33.417911529541016,17.343280792236328,-64.92098999023438,-44.47238540649414,0.0,0.0,-0.0,-0.0,0.3857412040233612,0.931149959564209,0.007629374973475933,1.3733999729156494,0.4578000009059906,-0.5951399803161621,0.0,518719.0
1.0,71.74683380126953,39.458187103271484,-115.66864776611328,-55.242218017578125,0.0,0.0,-0.0,-0.0,0.3857412040233612,0.931149959564209,0.007629374973475933,1.3733999729156494,0.4578000009059906,-0.5951399803161621,0.0,518720.0
1.0,101.89737701416016,39.79793930053711,-81.34871673583984,-16.3916072845459,0.0,0.0,-0.0,-0.0,0.3857412040233612,0.931149959564209,0.007629374973475933,1.3733999729156494,0.4578000009059906,-0.5951399803161621,0.0,518721.0
1.0,55.188594818115234,18.24844741821289,9.965872764587402,42.93116760253906,0.0,0.0,-0.0,-0.0,0.3835439383983612,0.925229549407959,0.01794428937137127,2.1669199466705322,-0.6866999864578247,-0.244159996509552,0.0,518722.0
1.0,1.1343741416931152,-12.985791206359863,93.37725830078125,77.3896255493164,0.0,0.0,-0.0,-0.0,0.3835439383983612,0.925229549407959,0.01794428937137127,2.1669199466705322,-0.6866999864578247,-0.244159996509552,0.0,518723.0
1.0,-16.42840576171875,-36.62132263183594,119.46405029296875,67.73735809326172,0.0,0.0,-0.0,-0.0,0.3835439383983612,0.925229549407959,0.01794428937137127,2.1669199466705322,-0.6866999864578247,-0.244159996509552,0.0,518724.0
1.0,-4.358834266662598,-39.579341888427734,75.4524154663086,22.46915054321289,0.0,0.0,-0.0,-0.0,0.3835439383983612,0.925229549407959,0.01794428937137127,2.1669199466705322,-0.6866999864578247,-0.244159996509552,0.0,518725.0
1.0,20.977834701538086,-20.27454376220703,-15.360638618469238,-37.93852233886719,0.0,0.0,-0.0,-0.0,0.3835439383983612,0.925229549407959,0.01794428937137127,2.1669199466705322,-0.6866999864578247,-0.244159996509552,0.0,518726.0
1.0,45.130096435546875,10.409849166870117,-103.12044525146484,-85.78492736816406,0.0,0.0,-0.0,-0.0,0.3835439383983612,0.925229549407959,0.01794428937137127,2.1669199466705322,-0.6866999864578247,-0.244159996509552,0.0,518727.0
1.0,45.2513313293457,35.197105407714844,-137.10589599609375,-93.3386459350586,0.0,0.0,-0.0,-0.0,0.3835439383983612,0.925229549407959,0.01794428937137127,2.1669199466705322,-0.6866999864578247,-0.244159996509552,0.0,518728.0
1.0,6.735138416290283,40.13350296020508,-98.40644073486328,-50.774986267089844,0.0,0.0,-0.0,-0.0,0.3835439383983612,0.925229549407959,0.01794428937137127,2.1669199466705322,-0.6866999864578247,-0.244159996509552,0.0,518729.0
1.0,-57.716461181640625,22.344289779663086,-11.49217700958252,23.928672790527344,0.0,0.0,-0.0,-0.0,0.3835439383983612,0.925229549407959,0.01794428937137127,2.1669199466705322,-0.6866999864578247,-0.244159996509552,0.0,518730.0
1.0,-114.5933837890625,-8.921899795532227,73.7852554321289,91.46654510498047,0.0,0.0,-0.0,-0.0,0.3835439383983612,0.925229549407959,0.01794428937137127,2.1669199466705322,-0.6866999864578247,-0.244159996509552,0.0,518731.0
1.0,-129.3924560546875,-37.17325210571289,113.99192810058594,109.29961395263672,0.0,0.0,-0.0,-0.0,0.3831777274608612,0.9153419137001038,0.021484319120645523,0.3204599916934967,-0.1068200021982193,-4.3948798179626465,0.0,518732.0
1.0,-87.82278442382812,-46.8223991394043,96.76746368408203,60.5685920715332,0.0,0.0,-0.0,-0.0,0.3831777274608612,0.9153419137001038,0.021484319120645523,0.3204599916934967,-0.1068200021982193,-4.3948798179626465,0.0,518733.0
1.0,-6.152973175048828,-31.675477981567383,41.07106018066406,-26.1960506439209,0.0,0.0,-0.0,-0.0,0.3831777274608612,0.9153419137001038,0.021484319120645523,0.3204599916934967,-0.1068200021982193,-4.3948798179626465,0.0,518734.0
1.0,78.40072631835938,1.228989839553833,-24.678035736083984,-96.64628601074219,0.0,0.0,-0.0,0.0,0.3831777274608612,0.9153419137001038,0.021484319120645523,0.3204599916934967,-0.1068200021982193,-4.3948798179626465,0.0,518735.0
1.0,131.05532836914062,34.755374908447266,-77.90846252441406,-112.69093322753906,0.0,0.0,-0.0,0.0,0.3831777274608612,0.9153419137001038,0.021484319120645523,0.3204599916934967,-0.1068200021982193,-4.3948798179626465,0.0,518736.0
1.0,136.30799865722656,50.760440826416016,-96.8199691772461,-71.18211364746094,0.0,0.0,-0.0,0.0,0.3831777274608612,0.9153419137001038,0.021484319120645523,0.3204599916934967,-0.1068200021982193,-4.3948798179626465,0.0,518737.0
1.0,95.62057495117188,40.676021575927734,-63.81611633300781,5.173608303070068,0.0,0.0,-0.0,0.0,0.3831777274608612,0.9153419137001038,0.021484319120645523,0.3204599916934967,-0.1068200021982193,-4.3948798179626465,0.0,518738.0
1.0,22.269962310791016,9.960285186767578,11.829044342041016,79.91655731201172,0.0,0.0,-0.0,0.0,0.3831777274608612,0.9153419137001038,0.021484319120645523,0.3204599916934967,-0.1068200021982193,-4.3948798179626465,0.0,518739.0
1.0,-57.56105422973633,-25.5102596282959,87.89652252197266,117.4526138305664,0.0,0.0,-0.0,0.0,0.3831777274608612,0.9153419137001038,0.021484319120645523,0.3204599916934967,-0.1068200021982193,-4.3948798179626465,0.0,518740.0
1.0,-110.75201416015625,-47.435447692871094,116.61796569824219,103.76309967041016,0.0,0.0,-0.0,0.0,0.3831777274608612,0.9153419137001038,0.021484319120645523,0.3204599916934967,-0.1068200021982193,-4.3948798179626465,0.0,518741.0
1.0,-115.3650894165039,-44.624759674072266,77.9842529296875,49.59860610961914,0.0,0.0,-0.0,0.0,0.3913564085960388,0.9143043160438538,0.013000454753637314,5.264699935913086,3.219860076904297,-2.1669199466705322,0.0,518742.0
1.0,-73.18083953857422,-19.129783630371094,-7.767446041107178,-24.967321395874023,0.0,0.0,-0.0,0.0,0.3913564085960388,0.9143043160438538,0.013000454753637314,5.264699935913086,3.219860076904297,-2.1669199466705322,0.0,518743.0
1.0,-3.370968818664551,15.203667640686035,-90.8174057006836,-92.30077362060547,0.0,0.0,-0.0,0.0,0.3913564085960388,0.9143043160438538,0.013000454753637314,5.264699935913086,3.219860076904297,-2.1669199466705322,0.0,518744.0
1.0,63.94721984863281,40.096012115478516,-121.78829956054688,-117.20889282226562,0.0,0.0,-0.0,0.0,0.3913564085960388,0.9143043160438538,0.013000454753637314,5.264699935913086,3.219860076904297,-2.1669199466705322,0.0,518745.0
1.0,93.40977478027344,42.61698532104492,-86.51780700683594,-84.70851135253906,0.0,0.0,-0.0,0.0,0.3913564085960388,0.9143043160438538,0.013000454753637314,5.264699935913086,3.219860076904297,-2.1669199466705322,0.0,518746.0
1.0,69.29763793945312,22.160980224609375,-12.632450103759766,-19.150663375854492,0.0,0.0,-0.0,0.0,0.3913564085960388,0.9143043160438538,0.013000454753637314,5.264699935913086,3.219860076904297,-2.1669199466705322,0.0,518747.0
1.0,13.746148109436035,-9.657020568847656,57.309791564941406,39.71950912475586,0.0,0.0,-0.0,0.0,0.3913564085960388,0.9143043160438538,0.013000454753637314,5.264699935913086,3.219860076904297,-2.1669199466705322,0.0,518748.0
1.0,-33.89395523071289,-35.20085144042969,91.88998413085938,68.21675872802734,0.0,0.0,-0.0,0.0,0.3913564085960388,0.9143043160438538,0.013000454753637314,5.264699935913086,3.219860076904297,-2.1669199466705322,0.0,518749.0
1.0,-50.9903564453125,-40.46162414550781,79.19169616699219,62.804359436035156,0.0,0.0,-0.0,0.0,0.3913564085960388,0.9143043160438538,0.013000454753637314,5.264699935913086,3.219860076904297,-2.1669199466705322,0.0,518750.0
1.0,-38.621055603027344,-22.9383487701416,27.219024658203125,30.74430274963379,0.0,0.0,-0.0,0.0,0.3913564085960388,0.9143043160438538,0.013000454753637314,5.264699935913086,3.219860076904297,-2.1669199466705322,0.0,518751.0
1.0,-9.724627494812012,7.465888977050781,-38.06414794921875,-11.21799087524414,0.0,0.0,-0.0,0.0,0.3862905204296112,0.923093318939209,0.005493150092661381,3.5097999572753906,1.8312000036239624,-1.022420048713684,0.0,518752.0
1.0,17.81528663635254,33.95772171020508,-79.90067291259766,-39.082366943359375,0.0,0.0,-0.0,0.0,0.3862905204296112,0.923093318939209,0.005493150092661381,3.5097999572753906,1.8312000036239624,-1.022420048713684,0.0,518753.0
1.0,30.2126407623291,42.19568634033203,-70.20686340332031,-36.59684371948242,0.0,0.0,-0.0,0.0,0.3862905204296112,0.923093318939209,0.005493150092661381,3.5097999572753906,1.8312000036239624,-1.022420048713684,0.0,518754.0
1.0,25.359893798828125,28.31986427307129,-14.351792335510254,-7.319820404052734,0.0,0.0,-0.0,0.0,0.3862905204296112,0.923093318939209,0.005493150092661381,3.5097999572753906,1.8312000036239624,-1.022420048713684,0.0,518755.0
1.0,7.105347633361816,-0.12885341048240662,46.595298767089844,29.36223793029785,0.0,0.0,-0.0,0.0,0.3862905204296112,0.923093318939209,0.005493150092661381,3.5097999572753906,1.8312000036239624,-1.022420048713684,0.0,518756.0
1.0,-17.7404727935791,-28.63030433654785,69.792724609375,50.12822341918945,0.0,0.0,-0.0,0.0,0.3862905204296112,0.923093318939209,0.005493150092661381,3.5097999572753906,1.8312000036239624,-1.022420048713684,0.0,518757.0
1.0,-36.61631393432617,-42.14717102050781,50.93528366088867,40.81254577636719,0.0,0.0,-0.0,0.0,0.3862905204296112,0.923093318939209,0.005493150092661381,3.5097999572753906,1.8312000036239624,-1.022420048713684,0.0,518758.0
1.0,-36.02455520629883,-32.9379997253418,19.608190536499023,5.471694469451904,0.0,0.0,-0.0,0.0,0.3862905204296112,0.923093318939209,0.005493150092661381,3.5097999572753906,1.8312000036239624,-1.022420048713684,0.0,518759.0
1.0,-10.992890357971191,-5.730042934417725,-4.746837139129639,-37.102745056152344,0.0,0.0,-0.0,0.0,0.3862905204296112,0.923093318939209,0.005493150092661381,3.5097999572753906,1.8312000036239624,-1.022420048713684,0.0,518760.0
1.0,26.236494064331055,24.111099243164062,-27.446887969970703,-64.89398956298828,0.0,0.0,-0.0,0.0,0.3862905204296112,0.923093318939209,0.005493150092661381,3.5097999572753906,1.8312000036239624,-1.022420048713684,0.0,518761.0
1.0,48.201393127441406,39.49189376831055,-48.47063446044922,-62.57699966430664,0.0,0.0,-0.0,0.0,0.3800038993358612,0.922971248626709,0.013000454753637314,4.455920219421387,-2.044840097427368,-1.7854199409484863,0.0,518762.0
1.0,34.499839782714844,32.18019104003906,-47.90768051147461,-27.2248477935791,0.0,0.0,-0.0,0.0,0.3800038993358612,0.922971248626709,0.013000454753637314,4.455920219421387,-2.044840097427368,-1.7854199409484863,0.0,518763.0
1.0,-8.040797233581543,7.053990364074707,-12.724922180175781,29.525693893432617,0.0,0.0,-0.0,0.0,0.3800038993358612,0.922971248626709,0.013000454753637314,4.455920219421387,-2.044840097427368,-1.7854199409484863,0.0,518764.0
1.0,-51.73088455200195,-21.632213592529297,36.84373092651367,80.00005340576172,0.0,0.0,-0.0,0.0,0.3800038993358612,0.922971248626709,0.013000454753637314,4.455920219421387,-2.044840097427368,-1.7854199409484863,0.0,518765.0
1.0,-65.83309936523438,-37.99412155151367,59.84006118774414,89.21710205078125,0.0,0.0,-0.0,0.0,0.3800038993358612,0.922971248626709,0.013000454753637314,4.455920219421387,-2.044840097427368,-1.7854199409484863,0.0,518766.0
1.0,-32.37912368774414,-32.92610549926758,33.89451599121094,42.492576599121094,0.0,0.0,-0.0,0.0,0.3800038993358612,0.922971248626709,0.013000454753637314,4.455920219421387,-2.044840097427368,-1.7854199409484863,0.0,518767.0
1.0,35.208534240722656,-9.146515846252441,-23.42424774169922,-34.77614974975586,0.0,0.0,-0.0,0.0,0.3800038993358612,0.922971248626709,0.013000454753637314,4.455920219421387,-2.044840097427368,-1.7854199409484863,0.0,518768.0
1.0,90.80158233642578,20.162914276123047,-71.28890228271484,-92.82666778564453,0.0,0.0,-0.0,0.0,0.3800038993358612,0.922971248626709,0.013000454753637314,4.455920219421387,-2.044840097427368,-1.7854199409484863,0.0,518769.0
1.0,90.51625061035156,38.42778396606445,-77.40465545654297,-94.88072967529297,0.0,0.0,-0.0,0.0,0.3800038993358612,0.922971248626709,0.013000454753637314,4.455920219421387,-2.044840097427368,-1.7854199409484863,0.0,518770.0
1.0,34.75830078125,35.36417770385742,-39.14836502075195,-43.345726013183594,0.0,0.0,-0.0,0.0,0.3800038993358612,0.922971248626709,0.013000454753637314,4.455920219421387,-2.044840097427368,-1.7854199409484863,0.0,518771.0
1.0,-32.668399810791016,12.923752784729004,19.2313232421875,25.526113510131836,0.0,0.0,-0.0,0.0,0.3791494071483612,0.9155250191688538,0.021667424589395523,7.065380096435547,-2.0295801162719727,-3.784480094909668,0.0,518772.0
1.0,-70.67396545410156,-16.73255157470703,67.81544494628906,71.21744537353516,0.0,0.0,-0.0,0.0,0.3791494071483612,0.9155250191688538,0.021667424589395523,7.065380096435547,-2.0295801162719727,-3.784480094909668,0.0,518773.0
1.0,-70.3541488647461,-37.912147521972656,85.4673080444336,74.87860107421875,0.0,0.0,-0.0,0.0,0.3791494071483612,0.9155250191688538,0.021667424589395523,7.065380096435547,-2.0295801162719727,-3.784480094909668,0.0,518774.0
1.0,-42.3878059387207,-39.063419342041016,64.3963394165039,43.773887634277344,0.0,0.0,-0.0,0.0,0.3791494071483612,0.9155250191688538,0.021667424589395523,7.065380096435547,-2.0295801162719727,-3.784480094909668,0.0,518775.0
1.0,-3.299140453338623,-19.006898880004883,16.702159881591797,-1.034429907798767,0.0,0.0,-0.0,0.0,0.3791494071483612,0.9155250191688538,0.021667424589395523,7.065380096435547,-2.0295801162719727,-3.784480094909668,0.0,518776.0
1.0,28.933500289916992,11.887899398803711,-31.12969398498535,-39.61973571777344,0.0,0.0,-0.0,0.0,0.3791494071483612,0.9155250191688538,0.021667424589395523,7.065380096435547,-2.0295801162719727,-3.784480094909668,0.0,518777.0
1.0,44.803977966308594,36.762847900390625,-58.553367614746094,-59.41188430786133,0.0,0.0,-0.0,0.0,0.3791494071483612,0.9155250191688538,0.021667424589395523,7.065380096435547,-2.0295801162719727,-3.784480094909668,0.0,518778.0
1.0,47.067447662353516,41.99129104614258,-58.199222564697266,-52.15106201171875,0.0,0.0,-0.0,0.0,0.3791494071483612,0.9155250191688538,0.021667424589395523,7.065380096435547,-2.0295801162719727,-3.784480094909668,0.0,518779.0
1.0,37.19535827636719,25.259868621826172,-29.222511291503906,-14.970540046691895,0.0,0.0,-0.0,0.0,0.3791494071483612,0.9155250191688538,0.021667424589395523,7.065380096435547,-2.0295801162719727,-3.784480094909668,0.0,518780.0
1.0,6.575836181640625,-4.537105083465576,17.19387435913086,36.68136978149414,0.0,0.0,-0.0,0.0,0.3791494071483612,0.9155250191688538,0.021667424589395523,7.065380096435547,-2.0295801162719727,-3.784480094909668,0.0,518781.0
1.0,-43.36101531982422,-32.73052215576172,49.59877014160156,66.45397186279297,0.0,0.0,-0.0,0.0,0.3838491141796112,0.9170508980751038,0.022827090695500374,7.614739894866943,-1.3428800106048584,-1.9685399532318115,0.0,518782.0
1.0,-84.06192016601562,-44.94326400756836,38.33698272705078,48.11433792114258,0.0,0.0,-0.0,0.0,0.3838491141796112,0.9170508980751038,0.022827090695500374,7.614739894866943,-1.3428800106048584,-1.9685399532318115,0.0,518783.0
1.0,-83.78742980957031,-33.6882438659668,-10.344165802001953,-3.6219279766082764,0.0,0.0,-0.0,0.0,0.3838491141796112,0.9170508980751038,0.022827090695500374,7.614739894866943,-1.3428800106048584,-1.9685399532318115,0.0,518784.0
1.0,-40.98388671875,-3.3900256156921387,-58.08113098144531,-49.83279800415039,0.0,0.0,-0.0,0.0,0.3838491141796112,0.9170508980751038,0.022827090695500374,7.614739894866943,-1.3428800106048584,-1.9685399532318115,0.0,518785.0
1.0,18.427196502685547,30.226642608642578,-69.90652465820312,-65.53607940673828,0.0,0.0,-0.0,0.0,0.3838491141796112,0.9170508980751038,0.022827090695500374,7.614739894866943,-1.3428800106048584,-1.9685399532318115,0.0,518786.0
1.0,69.34883880615234,48.25007247924805,-38.23455047607422,-49.81424331665039,0.0,0.0,-0.0,0.0,0.3838491141796112,0.9170508980751038,0.022827090695500374,7.614739894866943,-1.3428800106048584,-1.9685399532318115,0.0,518787.0
1.0,98.46553039550781,40.26618194580078,19.508779525756836,-11.22081470489502,0.0,0.0,0.0,0.0,0.3838491141796112,0.9170508980751038,0.022827090695500374,7.614739894866943,-1.3428800106048584,-1.9685399532318115,0.0,518788.0
1.0,93.1141586303711,10.530718803405762,76.8447494506836,39.931880950927734,0.0,0.0,0.0,0.0,0.3838491141796112,0.9170508980751038,0.022827090695500374,7.614739894866943,-1.3428800106048584,-1.9685399532318115,0.0,518789.0
1.0,46.37651443481445,-25.057737350463867,107.62393951416016,83.65576934814453,0.0,0.0,0.0,0.0,0.3838491141796112,0.9170508980751038,0.022827090695500374,7.614739894866943,-1.3428800106048584,-1.9685399532318115,0.0,518790.0
1.0,-22.526615142822266,-47.5186767578125,90.56604766845703,92.6822509765625,0.0,0.0,0.0,0.0,0.3838491141796112,0.9170508980751038,0.022827090695500374,7.614739894866943,-1.3428800106048584,-1.9685399532318115,0.0,518791.0
1.0,-73.72168731689453,-44.86838912963867,25.256237030029297,54.82246398925781,0.0,0.0,0.0,0.0,0.3844594657421112,0.923276424407959,0.014465294778347015,10.849860191345215,-1.0681999921798706,0.015259999781847,0.0,518792.0
1.0,-78.57030487060547,-18.707426071166992,-57.98347091674805,-14.090353965759277,0.0,0.0,0.0,0.0,0.3844594657421112,0.923276424407959,0.014465294778347015,10.849860191345215,-1.0681999921798706,0.015259999781847,0.0,518793.0
1.0,-43.62584686279297,16.85213851928711,-114.95684051513672,-79.80587005615234,0.0,0.0,0.0,0.0,0.3844594657421112,0.923276424407959,0.014465294778347015,10.849860191345215,-1.0681999921798706,0.015259999781847,0.0,518794.0
1.0,-1.9599627256393433,42.8172607421875,-116.00012969970703,-108.13672637939453,0.0,0.0,0.0,0.0,0.3844594657421112,0.923276424407959,0.014465294778347015,10.849860191345215,-1.0681999921798706,0.015259999781847,0.0,518795.0
1.0,21.550495147705078,45.654808044433594,-63.68016815185547,-83.79734802246094,0.0,0.0,0.0,0.0,0.3844594657421112,0.923276424407959,0.014465294778347015,10.849860191345215,-1.0681999921798706,0.015259999781847,0.0,518796.0
1.0,25.344152450561523,24.51367950439453,13.459358215332031,-18.508216857910156,0.0,0.0,0.0,0.0,0.3844594657421112,0.923276424407959,0.014465294778347015,10.849860191345215,-1.0681999921798706,0.015259999781847,0.0,518797.0
1.0,14.95545768737793,-9.084365844726562,80.42123413085938,56.72449493408203,0.0,0.0,0.0,0.0,0.3844594657421112,0.923276424407959,0.014465294778347015,10.849860191345215,-1.0681999921798706,0.015259999781847,0.0,518798.0
1.0,-3.916909694671631,-37.41834259033203,107.40177917480469,104.35336303710938,0.0,0.0,0.0,0.0,0.3844594657421112,0.923276424407959,0.014465294778347015,10.849860191345215,-1.0681999921798706,0.015259999781847,0.0,518799.0
1.0,-20.48123550415039,-45.575313568115234,80.66898345947266,96.04059600830078,0.0,0.0,0.0,0.0,0.3844594657421112,0.923276424407959,0.014465294778347015,10.849860191345215,-1.0681999921798706,0.015259999781847,0.0,518800.0
1.0,-24.125965118408203,-29.46961784362793,13.823380470275879,31.621335983276367,0.0,0.0,0.0,0.0,0.3844594657421112,0.923276424407959,0.014465294778347015,10.849860191345215,-1.0681999921798706,0.015259999781847,0.0,518801.0
1.0,-7.125064849853516,2.122506856918335,-58.86099624633789,-54.196468353271484,0.0,0.0,0.0,0.0,0.3840322196483612,0.928708553314209,0.010986300185322762,13.276200294494629,-1.388659954071045,1.3733999729156494,0.0,518802.0
1.0,32.231101989746094,32.12474060058594,-100.01847839355469,-110.2303466796875,0.0,0.0,0.0,0.0,0.3840322196483612,0.928708553314209,0.010986300185322762,13.276200294494629,-1.388659954071045,1.3733999729156494,0.0,518803.0
1.0,72.0572738647461,44.25200653076172,-86.08155059814453,-103.07801818847656,0.0,0.0,0.0,0.0,0.3840322196483612,0.928708553314209,0.010986300185322762,13.276200294494629,-1.388659954071045,1.3733999729156494,0.0,518804.0
1.0,74.55015563964844,32.28486633300781,-23.315576553344727,-40.19502639770508,0.0,0.0,0.0,0.0,0.3840322196483612,0.928708553314209,0.010986300185322762,13.276200294494629,-1.388659954071045,1.3733999729156494,0.0,518805.0
1.0,25.788633346557617,3.031153678894043,51.60067367553711,39.003257751464844,0.0,0.0,0.0,0.0,0.3840322196483612,0.928708553314209,0.010986300185322762,13.276200294494629,-1.388659954071045,1.3733999729156494,0.0,518806.0
1.0,-48.81698226928711,-27.707408905029297,93.9229507446289,91.95320129394531,0.0,0.0,0.0,0.0,0.3840322196483612,0.928708553314209,0.010986300185322762,13.276200294494629,-1.388659954071045,1.3733999729156494,0.0,518807.0
1.0,-102.57789611816406,-43.05183792114258,78.60433197021484,95.41151428222656,0.0,0.0,0.0,0.0,0.3840322196483612,0.928708553314209,0.010986300185322762,13.276200294494629,-1.388659954071045,1.3733999729156494,0.0,518808.0
1.0,-97.90248107910156,-34.310081481933594,15.776270866394043,52.91377639770508,0.0,0.0,0.0,0.0,0.3840322196483612,0.928708553314209,0.010986300185322762,13.276200294494629,-1.388659954071045,1.3733999729156494,0.0,518809.0
1.0,-37.922760009765625,-6.301642894744873,-53.120277404785156,-10.222168922424316,0.0,0.0,0.0,0.0,0.3840322196483612,0.928708553314209,0.010986300185322762,13.276200294494629,-1.388659954071045,1.3733999729156494,0.0,518810.0
1.0,32.86774444580078,25.228654861450195,-80.98858642578125,-59.85845947265625,0.0,0.0,0.0,0.0,0.3840322196483612,0.928708553314209,0.010986300185322762,13.276200294494629,-1.388659954071045,1.3733999729156494,0.0,518811.0
1.0,66.4239730834961,42.59724426269531,-49.79404830932617,-69.87224578857422,0.0,0.0,0.0,0.0,0.3832387626171112,0.928037166595459,0.010925265029072762,6.851739883422852,-1.815940022468567,0.8850799798965454,0.0,518812.0
1.0,48.40154266357422,36.42900085449219,15.274950981140137,-37.40232849121094,0.0,0.0,0.0,0.0,0.3832387626171112,0.928037166595459,0.010925265029072762,6.851739883422852,-1.815940022468567,0.8850799798965454,0.0,518813.0
1.0,3.9153707027435303,10.632467269897461,69.57929229736328,14.643723487854004,0.0,0.0,0.0,0.0,0.3832387626171112,0.928037166595459,0.010925265029072762,6.851739883422852,-1.815940022468567,0.8850799798965454,0.0,518814.0
1.0,-28.438209533691406,-20.380247116088867,83.38371276855469,52.30270767211914,0.0,0.0,0.0,0.0,0.3832387626171112,0.928037166595459,0.010925265029072762,6.851739883422852,-1.815940022468567,0.8850799798965454,0.0,518815.0
1.0,-25.46270751953125,-39.65904235839844,51.1657600402832,52.49951171875,0.0,0.0,0.0,0.0,0.3832387626171112,0.928037166595459,0.010925265029072762,6.851739883422852,-1.815940022468567,0.8850799798965454,0.0,518816.0
1.0,8.00407886505127,-36.95379638671875,-12.309979438781738,18.02073097229004,0.0,0.0,0.0,-0.0,0.3832387626171112,0.928037166595459,0.010925265029072762,6.851739883422852,-1.815940022468567,0.8850799798965454,0.0,518817.0
1.0,43.81974792480469,-14.228376388549805,-76.30955505371094,-26.60806655883789,0.0,0.0,0.0,-0.0,0.3832387626171112,0.928037166595459,0.010925265029072762,6.851739883422852,-1.815940022468567,0.8850799798965454,0.0,518818.0
1.0,56.06383514404297,15.783975601196289,-108.73208618164062,-56.00351333618164,0.0,0.0,0.0,-0.0,0.3832387626171112,0.928037166595459,0.010925265029072762,6.851739883422852,-1.815940022468567,0.8850799798965454,0.0,518819.0
1.0,40.885345458984375,36.64851760864258,-92.3523941040039,-58.51499938964844,0.0,0.0,0.0,-0.0,0.3832387626171112,0.928037166595459,0.010925265029072762,6.851739883422852,-1.815940022468567,0.8850799798965454,0.0,518820.0
1.0,7.1629557609558105,37.17863464355469,-32.408077239990234,-33.75075149536133,0.0,0.0,0.0,-0.0,0.3832387626171112,0.928037166595459,0.010925265029072762,6.851739883422852,-1.815940022468567,0.8850799798965454,0.0,518821.0
1.0,-37.707393646240234,17.17955207824707,44.18682098388672,11.241686820983887,0.0,0.0,0.0,-0.0,0.3826284110546112,0.919858455657959,0.014404259622097015,2.2279601097106934,-3.113039970397949,-2.0601000785827637,0.0,518822.0
1.0,-82.72296905517578,-12.880171775817871,100.9168701171875,58.466739654541016,0.0,0.0,0.0,-0.0,0.3826284110546112,0.919858455657959,0.014404259622097015,2.2279601097106934,-3.113039970397949,-2.0601000785827637,0.0,518823.0
1.0,-101.0734634399414,-36.65669631958008,108.8372802734375,80.01824951171875,0.0,0.0,0.0,-0.0,0.3826284110546112,0.919858455657959,0.014404259622097015,2.2279601097106934,-3.113039970397949,-2.0601000785827637,0.0,518824.0
1.0,-64.28849029541016,-40.0953483581543,63.35966110229492,55.26680374145508,0.0,0.0,0.0,-0.0,0.3826284110546112,0.919858455657959,0.014404259622097015,2.2279601097106934,-3.113039970397949,-2.0601000785827637,0.0,518825.0
1.0,19.146467208862305,-20.26883888244629,-6.307953357696533,-6.260897159576416,0.0,0.0,0.0,-0.0,0.3826284110546112,0.919858455657959,0.014404259622097015,2.2279601097106934,-3.113039970397949,-2.0601000785827637,0.0,518826.0
1.0,97.0916976928711,11.99516487121582,-56.5341682434082,-64.55242156982422,0.0,0.0,0.0,-0.0,0.3826284110546112,0.919858455657959,0.014404259622097015,2.2279601097106934,-3.113039970397949,-2.0601000785827637,0.0,518827.0
1.0,119.38382720947266,38.31602478027344,-65.83586883544922,-80.91055297851562,0.0,0.0,0.0,-0.0,0.3826284110546112,0.919858455657959,0.014404259622097015,2.2279601097106934,-3.113039970397949,-2.0601000785827637,0.0,518828.0
1.0,77.91213989257812,43.59196472167969,-45.27308654785156,-50.89091873168945,0.0,0.0,0.0,-0.0,0.3826284110546112,0.919858455657959,0.014404259622097015,2.2279601097106934,-3.113039970397949,-2.0601000785827637,0.0,518829.0
1.0,0.4508395195007324,24.52945899963379,-16.615175247192383,-0.5075497627258301,0.0,0.0,0.0,-0.0,0.3826284110546112,0.919858455657959,0.014404259622097015,2.2279601097106934,-3.113039970397949,-2.0601000785827637,0.0,518830.0
1.0,-74.58739471435547,-9.070918083190918,8.434263229370117,43.072757720947266,0.0,0.0,0.0,-0.0,0.3826284110546112,0.919858455657959,0.014404259622097015,2.2279601097106934,-3.113039970397949,-2.0601000785827637,0.0,518831.0
1.0,-110.90567016601562,-39.26933670043945,26.131004333496094,64.48210144042969,0.0,0.0,0.0,-0.0,0.3822622001171112,0.9080176949501038,0.013854945078492165,9.339119911193848,-3.464020013809204,-4.791639804840088,0.0,518832.0
1.0,-85.09351348876953,-48.97100067138672,30.950428009033203,56.78535842895508,0.0,0.0,0.0,-0.0,0.3822622001171112,0.9080176949501038,0.013854945078492165,9.339119911193848,-3.464020013809204,-4.791639804840088,0.0,518833.0
1.0,-7.946755886077881,-31.97528839111328,18.672414779663086,23.90575408935547,0.0,0.0,0.0,-0.0,0.3822622001171112,0.9080176949501038,0.013854945078492165,9.339119911193848,-3.464020013809204,-4.791639804840088,0.0,518834.0
1.0,73.07847595214844,2.824526309967041,-5.2905497550964355,-19.024185180664062,0.0,0.0,0.0,-0.0,0.3822622001171112,0.9080176949501038,0.013854945078492165,9.339119911193848,-3.464020013809204,-4.791639804840088,0.0,518835.0
1.0,107.56916809082031,36.35675048828125,-26.96194839477539,-52.89568328857422,0.0,0.0,0.0,-0.0,0.3822622001171112,0.9080176949501038,0.013854945078492165,9.339119911193848,-3.464020013809204,-4.791639804840088,0.0,518836.0
1.0,77.81961822509766,50.26025390625,-34.49184036254883,-61.8333854675293,0.0,0.0,0.0,-0.0,0.3822622001171112,0.9080176949501038,0.013854945078492165,9.339119911193848,-3.464020013809204,-4.791639804840088,0.0,518837.0
1.0,5.249371528625488,37.51555633544922,-24.75145721435547,-41.5257682800293,0.0,0.0,0.0,-0.0,0.3822622001171112,0.9080176949501038,0.013854945078492165,9.339119911193848,-3.464020013809204,-4.791639804840088,0.0,518838.0
1.0,-67.76702880859375,5.6138224601745605,-0.22428257763385773,-3.187879800796509,0.0,0.0,0.0,-0.0,0.3822622001171112,0.9080176949501038,0.013854945078492165,9.339119911193848,-3.464020013809204,-4.791639804840088,0.0,518839.0
1.0,-102.14458465576172,-28.537343978881836,30.937828063964844,34.55674362182617,0.0,0.0,0.0,-0.0,0.3822622001171112,0.9080176949501038,0.013854945078492165,9.339119911193848,-3.464020013809204,-4.791639804840088,0.0,518840.0
1.0,-82.70531463623047,-47.22218704223633,53.263309478759766,56.46051788330078,0.0,0.0,0.0,-0.0,0.3822622001171112,0.9080176949501038,0.013854945078492165,9.339119911193848,-3.464020013809204,-4.791639804840088,0.0,518841.0
1.0,-25.74689292907715,-40.80747604370117,52.26447296142578,53.4600830078125,0.0,0.0,0.0,-0.0,0.3854360282421112,0.9064918160438538,0.011413545347750187,15.229479789733887,-0.732479989528656,-6.3176398277282715,0.0,518842.0
1.0,35.493927001953125,-12.931863784790039,25.05558967590332,24.050851821899414,0.0,0.0,0.0,-0.0,0.3854360282421112,0.9064918160438538,0.011413545347750187,15.229479789733887,-0.732479989528656,-6.3176398277282715,0.0,518843.0
1.0,73.93643188476562,21.50598907470703,-16.598371505737305,-19.311717987060547,0.0,0.0,0.0,-0.0,0.3854360282421112,0.9064918160438538,0.011413545347750187,15.229479789733887,-0.732479989528656,-6.3176398277282715,0.0,518844.0
1.0,79.59637451171875,44.25246810913086,-51.46269989013672,-51.70398712158203,0.0,0.0,0.0,-0.0,0.3854360282421112,0.9064918160438538,0.011413545347750187,15.229479789733887,-0.732479989528656,-6.3176398277282715,0.0,518845.0
1.0,56.68138122558594,43.541683197021484,-60.06264114379883,-52.8925895690918,0.0,0.0,0.0,-0.0,0.3854360282421112,0.9064918160438538,0.011413545347750187,15.229479789733887,-0.732479989528656,-6.3176398277282715,0.0,518846.0
1.0,15.86661148071289,20.133962631225586,-36.1280403137207,-22.579832077026367,0.0,0.0,0.0,-0.0,0.3854360282421112,0.9064918160438538,0.011413545347750187,15.229479789733887,-0.732479989528656,-6.3176398277282715,0.0,518847.0
1.0,-32.254737854003906,-13.830352783203125,7.098133563995361,20.5559139251709,0.0,0.0,0.0,-0.0,0.3854360282421112,0.9064918160438538,0.011413545347750187,15.229479789733887,-0.732479989528656,-6.3176398277282715,0.0,518848.0
1.0,-75.29952239990234,-40.808345794677734,42.65583038330078,50.89860153198242,0.0,0.0,0.0,-0.0,0.3854360282421112,0.9064918160438538,0.011413545347750187,15.229479789733887,-0.732479989528656,-6.3176398277282715,0.0,518849.0
1.0,-87.83516693115234,-46.32114791870117,47.145904541015625,49.7016716003418,0.0,0.0,0.0,-0.0,0.3854360282421112,0.9064918160438538,0.011413545347750187,15.229479789733887,-0.732479989528656,-6.3176398277282715,0.0,518850.0
1.0,-41.57001876831055,-26.967525482177734,15.38465690612793,15.179136276245117,0.0,0.0,0.0,-0.0,0.3854360282421112,0.9064918160438538,0.011413545347750187,15.229479789733887,-0.732479989528656,-6.3176398277282715,0.0,518851.0
1.0,50.813331604003906,7.041813850402832,-34.792823791503906,-33.97978973388672,0.0,0.0,0.0,-0.0,0.3864736258983612,0.9167457222938538,0.006042465101927519,18.327259063720703,-0.6256600022315979,-3.84552001953125,0.0,518852.0
1.0,123.8471450805664,36.875362396240234,-68.94020080566406,-66.5830078125,0.0,0.0,0.0,-0.0,0.3864736258983612,0.9167457222938538,0.006042465101927519,18.327259063720703,-0.6256600022315979,-3.84552001953125,0.0,518853.0
1.0,117.74323272705078,46.06679916381836,-57.72585678100586,-59.75788879394531,0.0,0.0,0.0,-0.0,0.3864736258983612,0.9167457222938538,0.006042465101927519,18.327259063720703,-0.6256600022315979,-3.84552001953125,0.0,518854.0
1.0,34.45248794555664,30.499530792236328,-2.195167303085327,-16.469833374023438,0.0,0.0,0.0,-0.0,0.3864736258983612,0.9167457222938538,0.006042465101927519,18.327259063720703,-0.6256600022315979,-3.84552001953125,0.0,518855.0
1.0,-72.52873229980469,-0.5640497803688049,63.83516311645508,38.7780876159668,0.0,0.0,0.0,-0.0,0.3864736258983612,0.9167457222938538,0.006042465101927519,18.327259063720703,-0.6256600022315979,-3.84552001953125,0.0,518856.0
1.0,-143.06556701660156,-30.575416564941406,98.96356201171875,76.7607650756836,0.0,0.0,0.0,-0.0,0.3864736258983612,0.9167457222938538,0.006042465101927519,18.327259063720703,-0.6256600022315979,-3.84552001953125,0.0,518857.0
1.0,-142.6134796142578,-43.78400421142578,83.31226348876953,75.87448120117188,0.0,0.0,0.0,-0.0,0.3864736258983612,0.9167457222938538,0.006042465101927519,18.327259063720703,-0.6256600022315979,-3.84552001953125,0.0,518858.0
